1692527297.00
64.000000
-0.00
-0.00
-0.00
-0.00
-0.00
-0.00
-0.00
-0.00
-0.00
-0.00
0.00
0.01
0.01
-0.00
-0.03
-0.05
-0.05
0.00
0.13
0.36
0.66
1.01
1.37
1.72
2.06
2.40
2.79
3.25
3.81
4.44
5.09
5.73
6.32
6.90
7.52
8.26
9.15
10.26
11.49
12.72
13.82
14.78
15.67
16.68
18.04
19.87
22.37
25.31
28.41
31.37
34.08
36.67
39.49
42.99
47.45
53.19
59.78
66.65
73.26
79.37
85.17
91.30
98.48
107.16
117.70
129.41
141.39
152.81
163.35
173.34
183.68
195.77
208.13
222.63
239.46
258.47
278.53
297.13
310.51
314.54
305.97
283.64
249.27
205.98
157.62
107.46
57.57
9.00
-37.69
-81.96
-123.34
-161.47
-197.13
-231.82
-267.33
-304.81
-343.84
-381.95
-414.95
-438.30
-448.54
-444.89
-429.54
-406.83
-381.45
-356.78
-334.07
-312.82
-291.97
-270.86
-249.94
-230.29
-212.88
-198.02
-185.24
-173.58
-161.89
-148.95
-133.69
-115.33
-93.65
-69.08
-42.72
-16.06
9.34
32.11
51.21
65.81
75.40
79.89
79.83
76.47
71.48
66.45
62.38
59.44
57.07
54.47
50.94
46.18
40.33
33.98
28.14
24.00
22.66
24.72
29.98
37.44
45.55
52.78
58.13
61.26
62.40
62.03
60.58
58.28
55.31
51.89
48.37
45.12
42.35
40.05
38.02
36.03
33.91
31.67
29.42
27.32
25.50
23.99
22.74
21.66
20.64
19.59
18.46
17.30
16.16
15.18
14.41
13.84
13.37
12.88
12.25
11.42
10.47
9.51
8.67
7.99
7.49
7.09
6.78
6.52
6.25
5.84
5.09
3.84
2.09
0.07
-1.81
-3.14
-3.68
-3.45
-2.73
-1.90
-1.28
-1.00
-1.03
-1.22
-1.47
-1.70
-1.91
-2.13
-2.36
-2.62
-2.85
-3.01
-3.09
-3.06
-3.00
-2.96
-2.99
-3.09
-3.22
-3.27
-3.17
-2.94
-2.62
-2.34
-2.20
-2.26
-2.47
-2.73
-2.94
-3.01
-2.92
-2.69
-2.40
-2.12
-1.90
-1.74
-1.62
-1.49
-1.37
-1.29
-1.33
-1.49
-1.73
-1.92
-1.94
-1.75
-1.37
-0.89
-0.40
0.05
0.44
0.79
1.08
1.26
1.32
1.30
1.24
1.25
1.33
1.47
1.60
1.70
1.78
1.92
2.14
2.42
2.68
2.84
2.89
2.87
2.89
3.01
3.23
3.50
3.71
3.79
3.72
3.53
3.26
2.95
2.63
2.34
2.15
2.11
2.28
2.63
3.10
3.55
3.86
3.98
3.90
3.66
3.35
3.00
2.62
2.20
1.74
1.33
1.09
1.12
1.45
1.99
2.54
2.91
2.97
2.74
2.32
1.83
1.32
0.79
0.22
-0.35
-0.82
-1.04
-0.94
-0.53
0.06
0.66
1.13
1.40
1.48
1.40
1.21
0.95
0.69
0.48
0.36
0.36
0.46
0.65
0.88
1.12
1.34
1.53
1.66
1.71
1.65
1.47
1.16
0.78
0.42
0.18
0.14
0.28
0.50
0.70
0.84
0.92
1.04
1.25
1.57
1.96
2.32
2.60
2.74
2.77
2.73
2.67
2.67
2.76
2.98
3.30
3.61
3.82
3.84
3.68
3.42
3.23
3.20
3.44
3.95
4.66
5.42
5.92
5.81
4.81
2.85
0.15
-2.75
-5.26
-6.85
-7.34
-6.86
-5.78
-4.55
-3.50
-2.78
-2.38
-2.18
-2.05
-1.91
-1.73
-1.54
-1.38
-1.25
-1.13
-0.96
-0.73
-0.48
-0.28
-0.22
-0.35
-0.64
-1.00
-1.33
-1.53
-1.54
-1.36
-1.05
-0.71
-0.43
-0.24
-0.13
-0.01
0.15
0.36
0.52
0.51
0.29
-0.12
-0.60
-1.01
-1.27
-1.37
-1.35
-1.26
-1.13
-0.97
-0.78
-0.59
-0.43
-0.37
-0.43
-0.64
-0.98
-1.41
-1.88
-2.30
-2.60
-2.73
-2.71
-2.63
-2.60
-2.74
-3.09
-3.56
-4.04
-4.40
-4.64
-4.90
-5.40
-6.31
-7.61
-9.06
-10.29
-10.93
-10.84
-10.17
-9.35
-8.91
-9.27
-10.56
-12.59
-14.88
-16.89
-18.27
-18.95
-19.21
-19.54
-20.38
-22.02
-24.54
-27.80
-31.47
-34.93
-37.17
-37.00
-33.38
-26.01
-15.66
-4.08
6.59
14.64
19.35
21.09
20.82
19.45
17.41
14.64
11.01
6.81
2.91
0.57
0.87
4.20
10.04
17.13
23.91
29.13
32.22
33.33
33.06
32.09
30.82
29.36
27.61
25.55
23.39
21.52
20.33
19.99
20.31
20.82
20.99
20.45
19.21
17.68
16.43
16.00
16.58
17.99
19.73
21.24
22.15
22.41
22.36
22.50
23.30
24.98
27.43
30.29
33.12
35.59
37.67
39.65
41.96
45.03
49.01
53.71
58.63
63.23
67.13
70.31
73.14
76.15
79.94
84.89
91.07
98.08
104.81
109.17
108.28
99.09
79.48
49.23
10.54
-32.48
-74.94
-112.55
-142.54
-163.92
-177.08
-183.30
-184.29
-182.00
-178.47
-175.49
-174.24
-174.96
-176.99
-179.20
-180.60
-180.77
-180.11
-179.69
-181.00
-185.23
-192.56
-201.41
-208.46
-209.24
-199.64
-177.43
-143.25
-100.43
-53.89
-8.57
31.75
64.93
90.22
107.72
118.07
122.36
122.21
119.54
116.22
113.48
111.67
110.29
108.56
105.85
102.15
98.11
94.83
93.40
94.63
98.72
105.34
113.80
123.25
132.88
142.03
150.23
157.23
163.04
167.85
172.01
175.85
179.50
182.87
185.75
187.99
189.41
189.64
188.06
183.95
177.01
167.71
157.29
146.98
137.14
126.73
113.82
96.79
75.56
51.96
29.02
9.45
-5.48
-16.30
-24.52
-31.43
-37.50
-42.72
-47.62
-54.05
-64.64
-81.60
-105.11
-132.48
-158.92
-179.34
-190.41
-191.64
-185.15
-174.40
-162.47
-151.11
-140.64
-130.71
-121.08
-111.95
-103.82
-97.00
-91.37
-86.34
-81.21
-75.49
-69.12
-62.52
-56.29
-50.99
-46.89
-43.85
-41.47
-39.19
-36.53
-33.30
-29.60
-25.80
-22.36
-19.63
-17.75
-16.53
-15.60
-14.53
-13.10
-11.30
-9.36
-7.53
-5.97
-4.63
-3.39
-2.10
-0.78
0.43
1.33
1.81
1.86
1.65
1.39
1.24
1.31
1.62
2.10
2.69
3.32
3.93
4.55
5.19
5.83
6.44
6.93
7.24
7.36
7.32
7.18
6.99
6.75
6.45
6.09
5.68
5.24
4.75
4.21
3.59
2.95
2.35
1.89
1.63
1.55
1.57
1.57
1.47
1.26
0.95
0.60
0.25
-0.09
-0.40
-0.65
-0.80
-0.78
-0.59
-0.25
0.16
0.56
0.85
1.02
1.08
1.13
1.22
1.36
1.54
1.72
1.90
2.05
2.18
2.24
2.18
1.98
1.66
1.33
1.12
1.02
0.95
0.74
0.26
-0.49
-1.39
-2.23
-2.85
-3.23
-3.48
-3.70
-3.97
-4.22
-4.30
-4.10
-3.60
-2.91
-2.21
-1.68
-1.39
-1.31
-1.32
-1.28
-1.11
-0.85
-0.59
-0.43
-0.42
-0.52
-0.64
-0.70
-0.68
-0.60
-0.50
-0.38
-0.25
-0.09
0.09
0.23
0.26
0.15
-0.06
-0.29
-0.42
-0.36
-0.10
0.31
0.74
1.07
1.20
1.10
0.81
0.40
-0.03
-0.39
-0.64
-0.77
-0.81
-0.83
-0.86
-0.94
-1.04
-1.07
-0.97
-0.70
-0.30
0.15
0.57
0.93
1.28
1.68
2.14
2.56
2.79
2.71
2.31
1.69
1.03
0.52
0.19
0.01
-0.14
-0.36
-0.66
-0.96
-1.16
-1.17
-1.01
-0.72
-0.43
-0.20
-0.06
0.01
0.05
0.06
0.01
-0.16
-0.39
-0.56
-0.50
-0.10
0.59
1.37
1.97
2.15
1.91
1.39
0.85
0.50
0.38
0.41
0.45
0.41
0.30
0.20
0.15
0.12
0.03
-0.22
-0.63
-1.07
-1.38
-1.40
-1.09
-0.56
0.01
0.41
0.55
0.46
0.24
0.07
0.04
0.20
0.48
0.79
1.00
1.06
0.99
0.84
0.66
0.50
0.34
0.18
0.01
-0.18
-0.39
-0.64
-0.93
-1.25
-1.56
-1.82
-2.02
-2.17
-2.32
-2.44
-2.42
-2.15
-1.52
-0.58
0.47
1.36
1.87
1.94
1.69
1.31
1.02
0.90
0.96
1.14
1.33
1.46
1.46
1.35
1.16
0.98
0.90
0.95
1.11
1.28
1.40
1.43
1.39
1.29
1.12
0.81
0.32
-0.35
-1.12
-1.78
-2.16
-2.15
-1.78
-1.22
-0.66
-0.27
-0.10
-0.10
-0.18
-0.25
-0.31
-0.37
-0.50
-0.69
-0.82
-0.77
-0.43
0.19
0.94
1.61
2.01
2.03
1.69
1.11
0.43
-0.22
-0.79
-1.24
-1.56
-1.74
-1.76
-1.61
-1.35
-1.03
-0.77
-0.62
-0.64
-0.82
-1.08
-1.31
-1.42
-1.31
-1.02
-0.67
-0.47
-0.60
-1.13
-1.98
-2.94
-3.73
-4.20
-4.36
-4.40
-4.56
-4.98
-5.66
-6.42
-7.06
-7.47
-7.72
-8.05
-8.72
-9.89
-11.53
-13.44
-15.39
-17.24
-19.04
-21.01
-23.45
-26.57
-30.44
-34.92
-39.75
-44.63
-49.29
-53.63
-57.78
-62.07
-66.96
-72.88
-80.03
-88.21
-96.85
-105.20
-112.65
-119.02
-124.64
-130.17
-136.27
-143.34
-151.54
-160.96
-171.65
-183.35
-194.96
-204.21
-207.84
-202.44
-185.75
-157.48
-119.31
-73.89
-23.79
29.10
83.06
135.71
183.43
221.96
247.87
260.21
261.08
254.91
246.56
239.56
235.14
232.55
230.15
226.66
221.70
215.78
209.80
204.54
200.45
197.59
195.78
194.77
194.43
194.80
196.04
198.26
201.26
204.37
206.53
206.53
203.16
195.39
182.21
162.47
134.88
98.60
54.08
3.82
-47.53
-94.10
-130.54
-153.65
-163.42
-162.58
-155.28
-145.43
-135.55
-126.49
-118.05
-109.75
-101.43
-93.34
-85.76
-78.66
-71.63
-64.10
-55.83
-47.18
-39.08
-32.56
-28.14
-25.51
-23.66
-21.58
-19.03
-16.90
-16.91
-20.65
-28.58
-39.50
-50.92
-60.09
-65.13
-65.63
-62.55
-57.52
-52.01
-46.86
-42.32
-38.29
-34.73
-31.71
-29.31
-27.46
-25.85
-24.06
-21.81
-19.07
-16.12
-13.38
-11.23
-9.84
-9.10
-8.69
-8.23
-7.40
-6.10
-4.50
-2.94
-1.84
-1.45
-1.80
-2.64
-3.63
-4.46
-4.97
-5.18
-5.22
-5.21
-5.20
-5.22
-5.29
-5.43
-5.67
-5.98
-6.27
-6.39
-6.24
-5.79
-5.12
-4.41
-3.82
-3.43
-3.26
-3.25
-3.32
-3.40
-3.41
-3.24
-2.80
-1.98
-0.83
0.52
1.86
2.95
3.66
3.93
3.84
3.46
2.86
2.08
1.17
0.22
-0.61
-1.21
-1.52
-1.55
-1.40
-1.17
-0.91
-0.66
-0.43
-0.23
-0.09
-0.03
-0.04
-0.08
-0.06
0.06
0.33
0.66
0.96
1.14
1.17
1.09
1.00
1.02
1.21
1.55
1.97
2.32
2.49
2.38
2.04
1.55
1.07
0.70
0.47
0.32
0.13
-0.18
-0.62
-1.11
-1.55
-1.87
-2.08
-2.24
-2.43
-2.64
-2.78
-2.77
-2.52
-2.10
-1.61
-1.18
-0.89
-0.73
-0.69
-0.75
-0.90
-1.12
-1.30
-1.30
-0.96
-0.24
0.70
1.60
2.20
2.37
2.17
1.79
1.42
1.14
0.92
0.64
0.20
-0.35
-0.91
-1.33
-1.49
-1.37
-1.09
-0.75
-0.50
-0.41
-0.51
-0.72
-0.97
-1.15
-1.22
-1.13
-0.87
-0.47
0.03
0.58
1.08
1.41
1.53
1.42
1.17
0.88
0.64
0.49
0.40
0.32
0.22
0.12
0.05
0.08
0.18
0.30
0.34
0.23
-0.06
-0.43
-0.76
-0.95
-0.93
-0.79
-0.62
-0.53
-0.58
-0.73
-0.86
-0.88
-0.80
-0.68
-0.66
-0.82
-1.12
-1.43
-1.54
-1.35
-0.88
-0.29
0.20
0.43
0.41
0.31
0.34
0.65
1.18
1.77
2.19
2.32
2.22
2.01
1.81
1.63
1.37
0.93
0.27
-0.48
-1.17
-1.63
-1.82
-1.78
-1.60
-1.33
-1.01
-0.66
-0.29
0.04
0.30
0.49
0.62
0.72
0.81
0.86
0.86
0.85
0.88
1.00
1.18
1.35
1.45
1.39
1.21
0.98
0.81
0.76
0.81
0.85
0.76
0.46
-0.04
-0.68
-1.32
-1.83
-2.15
-2.22
-2.05
-1.69
-1.22
-0.76
-0.43
-0.32
-0.44
-0.72
-1.06
-1.32
-1.39
-1.26
-0.95
-0.54
-0.11
0.28
0.61
0.84
0.94
0.90
0.72
0.47
0.28
0.26
0.48
0.90
1.38
1.72
1.79
1.56
1.12
0.63
0.21
-0.09
-0.26
-0.37
-0.46
-0.55
-0.67
-0.79
-0.93
-1.05
-1.14
-1.14
-1.04
-0.84
-0.60
-0.41
-0.30
-0.29
-0.32
-0.34
-0.34
-0.34
-0.37
-0.43
-0.49
-0.49
-0.39
-0.24
-0.09
-0.02
-0.01
-0.01
0.05
0.20
0.41
0.59
0.67
0.67
0.61
0.54
0.45
0.33
0.14
-0.09
-0.29
-0.36
-0.27
-0.04
0.22
0.41
0.49
0.45
0.34
0.23
0.17
0.18
0.24
0.28
0.29
0.28
0.28
0.36
0.50
0.65
0.66
0.48
0.15
-0.18
-0.31
-0.15
0.24
0.69
1.00
1.08
0.99
0.86
0.78
0.75
0.64
0.34
-0.17
-0.81
-1.38
-1.76
-1.89
-1.81
-1.61
-1.36
-1.09
-0.81
-0.54
-0.32
-0.18
-0.16
-0.22
-0.29
-0.33
-0.30
-0.20
-0.08
0.08
0.27
0.46
0.62
0.64
0.47
0.14
-0.24
-0.49
-0.51
-0.29
0.03
0.29
0.35
0.21
-0.04
-0.30
-0.51
-0.66
-0.83
-1.04
-1.28
-1.48
-1.57
-1.52
-1.39
-1.26
-1.23
-1.33
-1.58
-1.91
-2.25
-2.53
-2.69
-2.70
-2.59
-2.42
-2.24
-2.10
-2.00
-1.96
-2.00
-2.10
-2.17
-2.05
-1.54
-0.48
1.13
3.09
5.02
6.52
7.33
7.38
6.84
5.97
4.99
4.03
3.10
2.19
1.31
0.57
0.07
-0.10
-0.02
0.15
0.23
0.10
-0.22
-0.59
-0.84
-0.87
-0.66
-0.33
0.01
0.30
0.55
0.80
1.10
1.45
1.77
1.97
1.96
1.78
1.49
1.24
1.13
1.21
1.42
1.67
1.86
1.94
1.94
1.89
1.82
1.71
1.52
1.26
0.95
0.67
0.50
0.47
0.55
0.66
0.70
0.61
0.39
0.11
-0.15
-0.36
-0.57
-0.84
-1.24
-1.77
-2.29
-2.63
-2.63
-2.27
-1.67
-1.01
-0.47
-0.17
-0.06
-0.04
0.03
0.27
0.68
1.22
1.78
2.25
2.57
2.71
2.70
2.58
2.32
1.89
1.23
0.33
-0.74
-1.81
-2.69
-3.23
-3.36
-3.12
-2.64
-2.10
-1.69
-1.52
-1.61
-1.89
-2.19
-2.31
-2.13
-1.61
-0.84
0.00
0.70
1.10
1.19
1.04
0.80
0.60
0.52
0.55
0.68
0.88
1.17
1.54
1.92
2.18
2.21
1.95
1.47
0.92
0.44
0.08
-0.23
-0.60
-1.12
-1.79
-2.51
-3.15
-3.63
-3.93
-4.04
-4.01
-3.85
-3.61
-3.38
-3.28
-3.38
-3.72
-4.26
-4.89
-5.46
-5.82
-5.83
-5.41
-4.60
-3.51
-2.36
-1.30
-0.37
0.53
1.58
2.91
4.46
6.03
7.34
8.22
8.61
8.65
8.46
8.10
7.50
6.57
5.29
3.83
2.45
1.45
0.92
0.75
0.67
0.41
-0.17
-0.98
-1.78
-2.31
-2.46
-2.27
-1.95
-1.68
-1.55
-1.51
-1.49
-1.39
-1.22
-1.03
-0.90
-0.82
-0.74
-0.62
-0.45
-0.28
-0.15
-0.11
-0.11
-0.08
0.03
0.22
0.42
0.53
0.50
0.36
0.21
0.16
0.25
0.43
0.61
0.66
0.52
0.21
-0.19
-0.61
-0.97
-1.27
-1.50
-1.62
-1.60
-1.42
-1.08
-0.63
-0.12
0.40
0.90
1.33
1.65
1.75
1.59
1.19
0.63
0.09
-0.26
-0.36
-0.22
0.04
0.30
0.48
0.57
0.62
0.69
0.81
0.94
1.02
0.99
0.79
0.43
-0.04
-0.57
-1.06
-1.46
-1.72
-1.86
-1.89
-1.84
-1.74
-1.61
-1.43
-1.19
-0.91
-0.61
-0.32
-0.05
0.20
0.46
0.73
0.97
1.10
1.04
0.74
0.27
-0.20
-0.50
-0.49
-0.20
0.25
0.69
1.00
1.16
1.23
1.25
1.22
1.09
0.84
0.50
0.18
-0.02
-0.08
-0.03
0.01
-0.02
-0.11
-0.21
-0.24
-0.21
-0.18
-0.20
-0.28
-0.40
-0.47
-0.45
-0.36
-0.24
-0.14
-0.10
-0.14
-0.25
-0.45
-0.68
-0.83
-0.75
-0.34
0.36
1.17
1.83
2.11
1.97
1.54
1.01
0.57
0.25
-0.03
-0.37
-0.81
-1.28
-1.66
-1.83
-1.79
-1.60
-1.35
-1.15
-1.07
-1.13
-1.33
-1.55
-1.69
-1.60
-1.24
-0.66
0.04
0.68
1.13
1.33
1.22
0.86
0.31
-0.28
-0.75
-0.93
-0.73
-0.23
0.39
0.89
1.14
1.12
0.96
0.77
0.60
0.43
0.19
-0.15
-0.49
-0.74
-0.78
-0.60
-0.28
0.07
0.35
0.51
0.58
0.55
0.46
0.28
0.05
-0.17
-0.30
-0.28
-0.14
0.06
0.22
0.27
0.20
0.04
-0.17
-0.35
-0.48
-0.52
-0.46
-0.32
-0.09
0.17
0.44
0.69
0.88
0.96
0.90
0.69
0.36
-0.01
-0.33
-0.50
-0.47
-0.25
0.06
0.34
0.50
0.50
0.35
0.11
-0.14
-0.36
-0.50
-0.53
-0.43
-0.23
0.04
0.27
0.39
0.33
0.09
-0.22
-0.51
-0.68
-0.73
-0.72
-0.68
-0.60
-0.43
-0.13
0.29
0.71
0.95
0.88
0.45
-0.22
-0.94
-1.52
-1.81
-1.80
-1.54
-1.14
-0.72
-0.39
-0.19
-0.11
-0.07
0.00
0.15
0.38
0.65
0.90
1.12
1.32
1.50
1.61
1.59
1.36
0.92
0.38
-0.09
-0.32
-0.24
0.08
0.51
0.91
1.18
1.32
1.32
1.17
0.86
0.36
-0.27
-0.92
-1.40
-1.59
-1.47
-1.15
-0.79
-0.55
-0.50
-0.65
-0.91
-1.21
-1.46
-1.63
-1.68
-1.56
-1.26
-0.79
-0.22
0.34
0.75
0.90
0.78
0.45
0.08
-0.16
-0.14
0.14
0.63
1.18
1.66
2.00
2.16
2.14
1.92
1.48
0.83
0.08
-0.61
-1.02
-1.03
-0.66
-0.05
0.53
0.89
0.90
0.62
0.21
-0.15
-0.35
-0.38
-0.27
-0.09
0.12
0.34
0.54
0.68
0.70
0.53
0.18
-0.26
-0.63
-0.75
-0.52
0.05
0.79
1.48
1.95
2.09
1.94
1.60
1.19
0.80
0.43
0.05
-0.40
-0.93
-1.46
-1.87
-2.00
-1.76
-1.20
-0.49
0.11
0.43
0.41
0.15
-0.20
-0.50
-0.69
-0.76
-0.75
-0.62
-0.36
0.01
0.40
0.68
0.73
0.54
0.18
-0.21
-0.49
-0.60
-0.53
-0.33
-0.03
0.32
0.67
0.96
1.11
1.03
0.69
0.14
-0.53
-1.16
-1.62
-1.84
-1.82
-1.62
-1.32
-1.01
-0.74
-0.53
-0.34
-0.14
0.11
0.39
0.66
0.86
0.93
0.83
0.60
0.29
-0.03
-0.30
-0.49
-0.59
-0.60
-0.47
-0.21
0.14
0.51
0.82
0.99
1.03
0.98
0.91
0.82
0.68
0.47
0.19
-0.11
-0.32
-0.36
-0.22
-0.01
0.15
0.16
-0.02
-0.30
-0.59
-0.76
-0.76
-0.59
-0.28
0.10
0.48
0.80
1.00
1.02
0.84
0.50
0.09
-0.33
-0.68
-0.94
-1.10
-1.15
-1.07
-0.84
-0.47
0.00
0.50
0.92
1.17
1.17
0.92
0.46
-0.12
-0.69
-1.15
-1.42
-1.50
-1.43
-1.34
-1.33
-1.44
-1.62
-1.74
-1.67
-1.30
-0.67
0.09
0.80
1.28
1.47
1.43
1.25
1.04
0.83
0.61
0.35
0.11
-0.02
0.06
0.38
0.86
1.37
1.75
1.92
1.86
1.63
1.29
0.89
0.45
-0.02
-0.46
-0.78
-0.91
-0.81
-0.54
-0.27
-0.18
-0.36
-0.74
-1.14
-1.35
-1.26
-0.93
-0.53
-0.22
-0.05
0.06
0.21
0.46
0.76
0.95
0.91
0.63
0.23
-0.12
-0.30
-0.23
0.06
0.47
0.92
1.30
1.54
1.60
1.46
1.15
0.72
0.24
-0.23
-0.65
-0.93
-1.05
-0.99
-0.81
-0.61
-0.50
-0.53
-0.68
-0.87
-0.98
-0.94
-0.73
-0.39
-0.00
0.37
0.69
0.93
1.06
1.06
0.91
0.59
0.14
-0.32
-0.67
-0.74
-0.49
0.00
0.58
1.04
1.24
1.17
0.96
0.73
0.60
0.57
0.59
0.53
0.34
0.01
-0.41
-0.81
-1.10
-1.23
-1.22
-1.14
-1.08
-1.09
-1.16
-1.22
-1.18
-0.99
-0.67
-0.28
0.12
0.47
0.75
0.94
1.04
1.01
0.83
0.53
0.14
-0.23
-0.51
-0.60
-0.50
-0.24
0.10
0.39
0.53
0.49
0.31
0.06
-0.18
-0.37
-0.55
-0.76
-1.02
-1.28
-1.43
-1.41
-1.20
-0.89
-0.59
-0.38
-0.29
-0.25
-0.18
-0.05
0.14
0.34
0.55
0.76
1.02
1.29
1.49
1.48
1.15
0.51
-0.29
-0.99
-1.38
-1.35
-0.94
-0.29
0.40
1.01
1.44
1.67
1.67
1.45
1.02
0.48
-0.08
-0.54
-0.84
-0.94
-0.90
-0.79
-0.67
-0.57
-0.51
-0.46
-0.42
-0.41
-0.42
-0.45
-0.47
-0.41
-0.23
0.12
0.59
1.08
1.45
1.57
1.37
0.90
0.30
-0.28
-0.70
-0.86
-0.79
-0.52
-0.14
0.26
0.57
0.72
0.66
0.42
0.07
-0.29
-0.55
-0.66
-0.59
-0.37
-0.05
0.32
0.65
0.82
0.74
0.40
-0.13
-0.67
-1.03
-1.07
-0.78
-0.31
0.17
0.49
0.59
0.51
0.37
0.27
0.23
0.22
0.17
0.06
-0.08
-0.16
-0.11
0.10
0.42
0.72
0.87
0.83
0.61
0.30
-0.02
-0.28
-0.47
-0.60
-0.71
-0.78
-0.76
-0.62
-0.36
-0.03
0.28
0.48
0.55
0.52
0.46
0.43
0.40
0.34
0.17
-0.10
-0.41
-0.66
-0.79
-0.79
-0.72
-0.66
-0.67
-0.73
-0.81
-0.86
-0.86
-0.83
-0.74
-0.57
-0.27
0.14
0.60
0.94
1.02
0.78
0.29
-0.26
-0.69
-0.85
-0.73
-0.42
-0.03
0.30
0.52
0.63
0.67
0.69
0.73
0.77
0.78
0.71
0.55
0.37
0.23
0.21
0.34
0.57
0.79
0.88
0.78
0.48
0.10
-0.23
-0.37
-0.27
0.05
0.47
0.86
1.08
1.09
0.93
0.67
0.40
0.16
-0.06
-0.28
-0.50
-0.68
-0.79
-0.81
-0.77
-0.74
-0.75
-0.81
-0.86
-0.84
-0.74
-0.57
-0.42
-0.32
-0.27
-0.19
-0.03
0.22
0.51
0.74
0.80
0.68
0.42
0.08
-0.25
-0.54
-0.74
-0.81
-0.73
-0.50
-0.18
0.11
0.28
0.31
0.28
0.29
0.43
0.66
0.84
0.84
0.60
0.24
-0.06
-0.11
0.11
0.43
0.63
0.54
0.19
-0.23
-0.52
-0.59
-0.50
-0.39
-0.36
-0.37
-0.29
-0.02
0.42
0.84
1.01
0.86
0.47
0.11
0.04
0.37
0.96
1.55
1.87
1.81
1.40
0.82
0.27
-0.15
-0.44
-0.64
-0.80
-0.92
-0.96
-0.91
-0.78
-0.65
-0.58
-0.61
-0.75
-0.93
-1.11
-1.23
-1.21
-1.03
-0.69
-0.24
0.21
0.52
0.63
0.52
0.30
0.09
-0.04
-0.04
0.05
0.19
0.34
0.44
0.45
0.33
0.08
-0.25
-0.57
-0.75
-0.77
-0.67
-0.55
-0.51
-0.59
-0.74
-0.85
-0.85
-0.72
-0.51
-0.31
-0.21
-0.23
-0.34
-0.47
-0.53
-0.44
-0.20
0.13
0.43
0.61
0.62
0.52
0.42
0.44
0.63
0.95
1.35
1.73
2.06
2.30
2.41
2.35
2.10
1.71
1.25
0.83
0.50
0.26
0.05
-0.15
-0.29
-0.31
-0.14
0.18
0.50
0.63
0.46
0.06
-0.40
-0.71
-0.75
-0.55
-0.26
-0.07
-0.09
-0.34
-0.73
-1.15
-1.48
-1.66
-1.66
-1.49
-1.19
-0.82
-0.45
-0.14
0.04
0.06
-0.05
-0.18
-0.23
-0.10
0.22
0.61
0.86
0.81
0.40
-0.26
-0.96
-1.48
-1.68
-1.56
-1.22
-0.83
-0.52
-0.36
-0.32
-0.35
-0.38
-0.38
-0.37
-0.40
-0.50
-0.64
-0.72
-0.62
-0.31
0.16
0.60
0.80
0.66
0.23
-0.29
-0.71
-0.90
-0.85
-0.64
-0.34
-0.01
0.33
0.67
0.94
1.08
1.07
0.95
0.81
0.75
0.81
0.96
1.15
1.35
1.56
1.80
2.05
2.24
2.25
2.03
1.59
1.05
0.55
0.19
-0.04
-0.23
-0.44
-0.71
-0.97
-1.14
-1.16
-1.09
-0.99
-0.95
-0.97
-0.98
-0.89
-0.65
-0.31
0.00
0.20
0.27
0.30
0.40
0.61
0.87
1.02
0.95
0.64
0.22
-0.11
-0.19
0.02
0.43
0.87
1.18
1.25
1.07
0.69
0.20
-0.34
-0.84
-1.25
-1.52
-1.63
-1.58
-1.40
-1.19
-1.01
-0.92
-0.91
-0.94
-0.95
-0.91
-0.85
-0.83
-0.88
-1.00
-1.12
-1.15
-1.06
-0.82
-0.46
-0.06
0.35
0.67
0.89
0.96
0.92
0.80
0.67
0.54
0.43
0.34
0.31
0.40
0.63
0.98
1.32
1.52
1.47
1.20
0.79
0.42
0.19
0.10
0.12
0.15
0.14
0.09
0.00
-0.11
-0.30
-0.55
-0.83
-1.06
-1.12
-1.00
-0.74
-0.48
-0.35
-0.42
-0.64
-0.89
-1.04
-1.00
-0.80
-0.55
-0.39
-0.39
-0.58
-0.89
-1.19
-1.34
-1.25
-0.90
-0.38
0.14
0.50
0.59
0.42
0.11
-0.21
-0.40
-0.43
-0.30
-0.10
0.12
0.29
0.39
0.40
0.29
0.04
-0.31
-0.69
-0.98
-1.03
-0.76
-0.14
0.71
1.61
2.36
2.84
3.04
3.06
3.06
3.14
3.30
3.45
3.46
3.28
2.95
2.60
2.33
2.17
2.04
1.79
1.35
0.74
0.08
-0.46
-0.76
-0.82
-0.74
-0.69
-0.82
-1.17
-1.68
-2.18
-2.53
-2.63
-2.52
-2.31
-2.12
-2.02
-1.95
-1.81
-1.56
-1.19
-0.82
-0.54
-0.39
-0.29
-0.17
0.00
0.19
0.26
0.16
-0.08
-0.32
-0.43
-0.36
-0.18
-0.02
0.02
-0.07
-0.24
-0.42
-0.53
-0.57
-0.54
-0.43
-0.27
-0.08
0.10
0.21
0.28
0.32
0.42
0.59
0.80
0.94
0.94
0.76
0.44
0.07
-0.27
-0.49
-0.55
-0.43
-0.13
0.32
0.84
1.33
1.67
1.78
1.61
1.22
0.70
0.16
-0.27
-0.50
-0.49
-0.24
0.17
0.65
1.04
1.24
1.16
0.80
0.25
-0.37
-0.89
-1.21
-1.27
-1.14
-0.93
-0.81
-0.86
-1.09
-1.40
-1.67
-1.79
-1.73
-1.54
-1.28
-0.96
-0.57
-0.07
0.51
1.07
1.45
1.54
1.32
0.89
0.46
0.17
0.07
0.11
0.20
0.22
0.17
0.12
0.14
0.28
0.52
0.75
0.85
0.72
0.37
-0.14
-0.66
-1.08
-1.31
-1.34
-1.23
-1.01
-0.73
-0.44
-0.17
0.04
0.17
0.23
0.25
0.32
0.52
0.84
1.26
1.65
1.87
1.80
1.41
0.75
0.02
-0.54
-0.72
-0.43
0.21
0.95
1.47
1.54
1.11
0.34
-0.53
-1.24
-1.64
-1.75
-1.67
-1.50
-1.31
-1.06
-0.75
-0.39
-0.09
0.04
-0.09
-0.42
-0.81
-1.06
-1.04
-0.77
-0.41
-0.14
-0.06
-0.15
-0.27
-0.29
-0.15
0.12
0.40
0.62
0.76
0.82
0.83
0.79
0.68
0.47
0.20
-0.05
-0.17
-0.12
0.10
0.37
0.54
0.49
0.19
-0.24
-0.64
-0.83
-0.74
-0.42
-0.04
0.25
0.36
0.30
0.16
0.06
0.07
0.18
0.37
0.56
0.75
0.93
1.12
1.27
1.34
1.26
1.02
0.67
0.31
0.07
0.02
0.15
0.37
0.58
0.69
0.69
0.60
0.47
0.27
-0.04
-0.51
-1.09
-1.69
-2.11
-2.23
-2.00
-1.49
-0.85
-0.24
0.19
0.40
0.37
0.16
-0.14
-0.42
-0.60
-0.63
-0.49
-0.23
0.09
0.41
0.65
0.72
0.56
0.15
-0.42
-0.99
-1.34
-1.38
-1.15
-0.80
-0.51
-0.36
-0.32
-0.27
-0.13
0.12
0.39
0.57
0.59
0.45
0.23
0.05
-0.00
0.11
0.33
0.51
0.55
0.36
0.01
-0.32
-0.47
-0.37
-0.05
0.33
0.65
0.86
0.98
1.05
1.07
0.97
0.71
0.31
-0.07
-0.27
-0.16
0.23
0.73
1.14
1.32
1.24
1.03
0.82
0.67
0.56
0.41
0.15
-0.24
-0.66
-0.97
-1.06
-0.94
-0.71
-0.56
-0.61
-0.87
-1.19
-1.37
-1.26
-0.87
-0.33
0.16
0.45
0.49
0.37
0.20
0.06
-0.05
-0.19
-0.38
-0.60
-0.81
-0.94
-1.00
-1.00
-1.00
-1.03
-1.04
-0.97
-0.77
-0.43
-0.04
0.26
0.38
0.26
0.01
-0.24
-0.35
-0.25
0.01
0.32
0.55
0.63
0.57
0.45
0.35
0.34
0.44
0.63
0.90
1.20
1.48
1.68
1.78
1.73
1.53
1.20
0.82
0.47
0.24
0.19
0.29
0.49
0.68
0.77
0.74
0.60
0.41
0.24
0.10
-0.01
-0.13
-0.31
-0.55
-0.80
-0.96
-0.93
-0.72
-0.39
-0.09
0.04
-0.05
-0.35
-0.73
-1.05
-1.19
-1.12
-0.88
-0.55
-0.23
0.03
0.25
0.43
0.60
0.73
0.78
0.67
0.42
0.07
-0.27
-0.50
-0.58
-0.52
-0.34
-0.09
0.19
0.44
0.56
0.45
0.10
-0.42
-0.90
-1.16
-1.08
-0.71
-0.22
0.20
0.39
0.30
-0.00
-0.42
-0.86
-1.23
-1.48
-1.54
-1.36
-0.95
-0.34
0.39
1.12
1.71
2.03
2.01
1.65
1.06
0.40
-0.15
-0.45
-0.43
-0.15
0.28
0.71
1.04
1.23
1.29
1.22
1.04
0.73
0.32
-0.14
-0.56
-0.85
-0.96
-0.95
-0.91
-0.91
-0.99
-1.11
-1.22
-1.28
-1.30
-1.30
-1.28
-1.22
-1.04
-0.72
-0.28
0.17
0.50
0.64
0.59
0.44
0.30
0.24
0.25
0.28
0.26
0.15
-0.01
-0.14
-0.15
-0.01
0.25
0.50
0.64
0.60
0.38
0.08
-0.16
-0.26
-0.21
-0.07
0.01
-0.03
-0.19
-0.36
-0.41
-0.26
0.05
0.38
0.58
0.59
0.46
0.33
0.33
0.47
0.66
0.78
0.75
0.60
0.41
0.29
0.25
0.24
0.19
0.11
0.04
0.09
0.33
0.73
1.18
1.54
1.74
1.74
1.56
1.23
0.77
0.22
-0.34
-0.79
-1.05
-1.08
-0.95
-0.79
-0.73
-0.80
-0.93
-1.03
-1.00
-0.83
-0.57
-0.29
-0.03
0.20
0.41
0.59
0.67
0.57
0.29
-0.16
-0.65
-1.06
-1.32
-1.39
-1.29
-1.03
-0.65
-0.17
0.34
0.78
1.06
1.14
1.03
0.78
0.46
0.10
-0.29
-0.68
-1.01
-1.21
-1.23
-1.10
-0.88
-0.69
-0.61
-0.63
-0.68
-0.69
-0.61
-0.47
-0.34
-0.27
-0.25
-0.25
-0.17
0.01
0.27
0.51
0.65
0.64
0.50
0.36
0.35
0.53
0.89
1.32
1.73
2.05
2.26
2.40
2.46
2.43
2.24
1.87
1.31
0.64
-0.03
-0.59
-0.95
-1.06
-0.98
-0.81
-0.66
-0.63
-0.74
-0.93
-1.09
-1.14
-1.04
-0.83
-0.57
-0.31
-0.06
0.14
0.26
0.25
0.08
-0.21
-0.53
-0.76
-0.81
-0.71
-0.53
-0.37
-0.32
-0.36
-0.45
-0.51
-0.50
-0.42
-0.33
-0.28
-0.32
-0.41
-0.50
-0.55
-0.51
-0.43
-0.35
-0.35
-0.43
-0.57
-0.68
-0.71
-0.61
-0.41
-0.16
0.08
0.27
0.42
0.59
0.81
1.10
1.44
1.74
1.92
1.93
1.80
1.59
1.38
1.25
1.24
1.36
1.59
1.87
2.15
2.33
2.29
1.97
1.39
0.65
-0.11
-0.75
-1.19
-1.43
-1.50
-1.47
-1.40
-1.35
-1.37
-1.44
-1.51
-1.48
-1.29
-0.93
-0.47
-0.03
0.29
0.42
0.39
0.21
-0.06
-0.43
-0.87
-1.32
-1.67
-1.85
-1.79
-1.52
-1.12
-0.69
-0.28
0.04
0.25
0.35
0.33
0.22
0.06
-0.12
-0.26
-0.34
-0.35
-0.27
-0.09
0.17
0.46
0.67
0.71
0.55
0.22
-0.16
-0.45
-0.58
-0.52
-0.33
-0.07
0.20
0.48
0.71
0.86
0.87
0.72
0.45
0.18
0.09
0.26
0.69
1.23
1.68
1.88
1.76
1.42
1.00
0.62
0.35
0.18
0.07
-0.04
-0.13
-0.22
-0.31
-0.43
-0.56
-0.68
-0.77
-0.81
-0.81
-0.81
-0.83
-0.85
-0.84
-0.71
-0.41
0.01
0.45
0.75
0.77
0.49
-0.03
-0.61
-1.07
-1.29
-1.24
-0.95
-0.53
-0.07
0.36
0.71
0.95
1.05
0.98
0.76
0.44
0.09
-0.20
-0.39
-0.49
-0.55
-0.61
-0.70
-0.81
-0.93
-1.01
-1.02
-0.93
-0.75
-0.49
-0.17
0.17
0.51
0.83
1.12
1.37
1.61
1.84
2.05
2.16
2.11
1.83
1.32
0.66
-0.00
-0.50
-0.72
-0.65
-0.40
-0.09
0.16
0.28
0.31
0.28
0.21
0.12
-0.02
-0.22
-0.45
-0.68
-0.88
-1.05
-1.19
-1.30
-1.35
-1.28
-1.05
-0.66
-0.22
0.15
0.33
0.28
0.07
-0.14
-0.22
-0.14
0.06
0.25
0.33
0.29
0.18
0.08
0.01
-0.07
-0.20
-0.39
-0.54
-0.58
-0.45
-0.18
0.08
0.20
0.12
-0.15
-0.51
-0.84
-1.08
-1.18
-1.16
-1.05
-0.89
-0.73
-0.64
-0.67
-0.83
-1.11
-1.42
-1.66
-1.72
-1.55
-1.15
-0.62
-0.12
0.19
0.22
-0.03
-0.45
-0.84
-1.03
-0.94
-0.56
0.02
0.69
1.36
1.96
2.44
2.78
2.99
3.06
3.03
2.90
2.66
2.28
1.77
1.14
0.48
-0.07
-0.40
-0.48
-0.35
-0.15
-0.01
-0.01
-0.13
-0.30
-0.45
-0.51
-0.48
-0.36
-0.16
0.12
0.48
0.87
1.20
1.35
1.23
0.83
0.27
-0.26
-0.56
-0.53
-0.24
0.17
0.50
0.61
0.51
0.30
0.11
0.04
0.11
0.26
0.36
0.32
0.09
-0.30
-0.76
-1.18
-1.43
-1.45
-1.26
-0.92
-0.55
-0.23
-0.02
0.09
0.13
0.13
0.14
0.19
0.31
0.49
0.72
0.91
1.01
0.98
0.85
0.72
0.71
0.86
1.13
1.39
1.49
1.33
0.96
0.49
0.08
-0.19
-0.34
-0.46
-0.65
-0.94
-1.27
-1.56
-1.76
-1.84
-1.84
-1.79
-1.72
-1.61
-1.47
-1.28
-1.05
-0.79
-0.46
-0.05
0.43
0.89
1.23
1.35
1.23
0.92
0.54
0.18
-0.12
-0.38
-0.64
-0.87
-1.01
-0.93
-0.55
0.07
0.80
1.43
1.76
1.73
1.41
0.93
0.44
0.03
-0.24
-0.38
-0.41
-0.36
-0.29
-0.22
-0.24
-0.40
-0.74
-1.25
-1.85
-2.42
-2.82
-2.96
-2.82
-2.47
-2.04
-1.64
-1.35
-1.12
-0.85
-0.48
0.03
0.60
1.15
1.59
1.93
2.18
2.38
2.53
2.62
2.61
2.50
2.34
2.19
2.12
2.12
2.13
2.07
1.88
1.56
1.19
0.87
0.66
0.58
0.60
0.65
0.69
0.67
0.62
0.56
0.48
0.37
0.20
-0.04
-0.29
-0.46
-0.42
-0.09
0.47
1.08
1.51
1.54
1.11
0.35
-0.48
-1.09
-1.32
-1.17
-0.78
-0.35
-0.04
0.11
0.11
0.05
-0.04
-0.16
-0.35
-0.67
-1.14
-1.73
-2.34
-2.87
-3.24
-3.41
-3.43
-3.37
-3.31
-3.28
-3.26
-3.22
-3.14
-3.05
-2.99
-3.00
-3.06
-3.09
-3.01
-2.78
-2.41
-1.97
-1.50
-0.97
-0.31
0.56
1.62
2.72
3.61
4.06
3.98
3.46
2.75
2.13
1.78
1.69
1.71
1.68
1.52
1.27
1.04
0.93
0.96
1.05
1.07
0.96
0.75
0.53
0.41
0.42
0.52
0.62
0.63
0.55
0.44
0.40
0.54
0.85
1.28
1.71
2.01
2.06
1.86
1.46
0.99
0.57
0.29
0.21
0.29
0.49
0.74
0.99
1.22
1.37
1.41
1.31
1.03
0.61
0.11
-0.38
-0.76
-1.00
-1.09
-1.09
-1.06
-1.08
-1.17
-1.29
-1.37
-1.35
-1.19
-0.91
-0.58
-0.29
-0.09
-0.01
0.01
0.01
0.04
0.10
0.15
0.16
0.10
-0.01
-0.13
-0.18
-0.16
-0.06
0.05
0.07
-0.07
-0.38
-0.79
-1.22
-1.57
-1.77
-1.78
-1.62
-1.31
-0.91
-0.51
-0.20
-0.05
-0.07
-0.22
-0.39
-0.47
-0.39
-0.18
0.10
0.36
0.59
0.76
0.89
0.97
0.96
0.86
0.70
0.56
0.53
0.66
0.91
1.21
1.42
1.46
1.33
1.08
0.82
0.61
0.47
0.34
0.16
-0.12
-0.51
-0.93
-1.30
-1.54
-1.61
-1.55
-1.44
-1.35
-1.31
-1.30
-1.25
-1.12
-0.91
-0.68
-0.49
-0.40
-0.38
-0.36
-0.27
-0.10
0.10
0.24
0.26
0.14
-0.04
-0.16
-0.11
0.15
0.60
1.12
1.59
1.86
1.89
1.72
1.43
1.11
0.81
0.52
0.19
-0.16
-0.45
-0.57
-0.44
-0.08
0.35
0.64
0.65
0.39
0.03
-0.15
0.05
0.70
1.64
2.58
3.26
3.52
3.41
3.15
2.96
2.94
3.07
3.21
3.25
3.22
3.24
3.44
3.84
4.30
4.61
4.66
4.48
4.27
4.23
4.39
4.59
4.48
3.78
2.40
0.49
-1.64
-3.64
-5.27
-6.44
-7.15
-7.48
-7.48
-7.26
-6.90
-6.53
-6.23
-6.08
-6.06
-6.16
-6.34
-6.57
-6.75
-6.76
-6.42
-5.58
-4.22
-2.47
-0.66
0.90
1.95
2.45
2.53
2.40
2.24
2.08
1.89
1.59
1.15
0.67
0.28
0.09
0.11
0.23
0.34
0.34
0.24
0.10
0.01
0.01
0.06
0.11
0.09
-0.01
-0.17
-0.31
-0.38
-0.31
-0.08
0.27
0.65
0.93
1.00
0.84
0.52
0.21
0.05
0.14
0.44
0.82
1.13
1.28
1.28
1.17
1.03
0.89
0.73
0.51
0.19
-0.23
-0.72
-1.19
-1.56
-1.78
-1.84
-1.78
-1.65
-1.50
-1.35
-1.16
-0.96
-0.76
-0.61
-0.55
-0.53
-0.46
-0.23
0.24
0.88
1.52
1.96
2.04
1.81
1.47
1.26
1.34
1.69
2.13
2.41
2.37
2.04
1.58
1.17
0.92
0.77
0.59
0.27
-0.22
-0.79
-1.28
-1.56
-1.60
-1.47
-1.32
-1.24
-1.28
-1.41
-1.53
-1.54
-1.39
-1.09
-0.69
-0.25
0.18
0.58
0.92
1.15
1.19
1.00
0.61
0.15
-0.20
-0.33
-0.23
0.02
0.30
0.51
0.64
0.73
0.81
0.88
0.90
0.79
0.54
0.18
-0.20
-0.51
-0.65
-0.60
-0.39
-0.13
0.09
0.19
0.13
-0.03
-0.26
-0.50
-0.73
-0.94
-1.08
-1.10
-0.95
-0.64
-0.24
0.12
0.31
0.24
-0.07
-0.52
-0.94
-1.17
-1.12
-0.76
-0.16
0.54
1.16
1.55
1.67
1.55
1.31
1.05
0.85
0.71
0.54
0.30
-0.05
-0.48
-0.89
-1.21
-1.39
-1.43
-1.41
-1.40
-1.42
-1.43
-1.35
-1.12
-0.72
-0.20
0.32
0.74
1.00
1.10
1.06
0.95
0.79
0.59
0.38
0.19
0.05
0.02
0.09
0.24
0.41
0.56
0.65
0.70
0.73
0.76
0.79
0.77
0.65
0.40
0.06
-0.29
-0.54
-0.68
-0.71
-0.73
-0.80
-0.93
-1.06
-1.12
-1.05
-0.89
-0.70
-0.54
-0.40
-0.20
0.13
0.60
1.13
1.54
1.69
1.50
1.06
0.54
0.09
-0.16
-0.22
-0.15
-0.01
0.14
0.28
0.37
0.39
0.29
0.07
-0.21
-0.51
-0.74
-0.89
-0.96
-0.94
-0.83
-0.64
-0.40
-0.15
-0.01
-0.06
-0.29
-0.60
-0.82
-0.81
-0.50
0.04
0.67
1.24
1.59
1.70
1.57
1.27
0.87
0.44
0.04
-0.30
-0.54
-0.65
-0.63
-0.49
-0.27
0.03
0.34
0.62
0.84
0.94
0.92
0.77
0.55
0.30
0.08
-0.09
-0.20
-0.26
-0.26
-0.22
-0.15
-0.13
-0.22
-0.43
-0.72
-1.01
-1.19
-1.20
-1.07
-0.87
-0.69
-0.58
-0.56
-0.62
-0.74
-0.89
-1.04
-1.09
-0.93
-0.49
0.23
1.06
1.77
2.17
2.23
2.03
1.76
1.52
1.33
1.10
0.74
0.24
-0.33
-0.84
-1.22
-1.44
-1.55
-1.58
-1.53
-1.38
-1.12
-0.77
-0.39
-0.06
0.18
0.31
0.36
0.31
0.19
0.04
-0.07
-0.08
0.05
0.29
0.55
0.71
0.71
0.56
0.32
0.09
-0.04
-0.07
-0.01
0.11
0.25
0.39
0.51
0.57
0.55
0.43
0.21
-0.06
-0.31
-0.48
-0.54
-0.46
-0.27
-0.04
0.16
0.24
0.16
-0.04
-0.28
-0.46
-0.49
-0.36
-0.13
0.12
0.34
0.51
0.63
0.70
0.67
0.49
0.14
-0.27
-0.58
-0.59
-0.24
0.38
1.03
1.43
1.43
1.04
0.45
-0.10
-0.43
-0.52
-0.47
-0.41
-0.43
-0.50
-0.52
-0.42
-0.21
-0.00
0.06
-0.13
-0.51
-0.95
-1.25
-1.31
-1.13
-0.79
-0.43
-0.12
0.09
0.24
0.34
0.39
0.40
0.38
0.39
0.45
0.56
0.66
0.69
0.64
0.53
0.46
0.48
0.59
0.72
0.76
0.65
0.37
-0.02
-0.40
-0.67
-0.79
-0.77
-0.65
-0.49
-0.35
-0.26
-0.22
-0.25
-0.29
-0.34
-0.37
-0.37
-0.35
-0.32
-0.25
-0.15
0.01
0.19
0.37
0.50
0.57
0.58
0.61
0.73
0.96
1.27
1.57
1.74
1.73
1.54
1.22
0.82
0.39
-0.06
-0.51
-0.92
-1.24
-1.37
-1.29
-1.02
-0.67
-0.38
-0.23
-0.23
-0.30
-0.37
-0.37
-0.33
-0.30
-0.33
-0.42
-0.49
-0.46
-0.30
-0.04
0.24
0.45
0.51
0.41
0.15
-0.20
-0.58
-0.91
-1.14
-1.24
-1.21
-1.08
-0.88
-0.63
-0.37
-0.15
-0.01
0.04
0.01
-0.07
-0.17
-0.27
-0.34
-0.37
-0.30
-0.10
0.21
0.54
0.75
0.71
0.43
0.03
-0.28
-0.31
-0.01
0.50
0.99
1.28
1.29
1.04
0.67
0.26
-0.10
-0.40
-0.62
-0.71
-0.63
-0.38
-0.04
0.30
0.54
0.67
0.69
0.67
0.62
0.54
0.42
0.26
0.09
-0.03
-0.10
-0.14
-0.20
-0.30
-0.43
-0.52
-0.51
-0.37
-0.13
0.15
0.40
0.56
0.66
0.76
0.91
1.12
1.31
1.38
1.22
0.83
0.33
-0.13
-0.37
-0.32
-0.03
0.42
0.94
1.47
2.00
2.48
2.84
2.98
2.87
2.53
2.07
1.63
1.31
1.10
0.92
0.62
0.09
-0.72
-1.76
-2.86
-3.84
-4.54
-4.86
-4.88
-4.73
-4.61
-4.63
-4.84
-5.15
-5.42
-5.53
-5.44
-5.17
-4.81
-4.41
-3.91
-3.20
-2.11
-0.57
1.34
3.36
5.15
6.40
6.96
6.85
6.25
5.37
4.36
3.31
2.24
1.20
0.28
-0.38
-0.68
-0.60
-0.24
0.21
0.55
0.60
0.35
-0.13
-0.66
-1.06
-1.22
-1.12
-0.81
-0.39
0.04
0.41
0.66
0.74
0.68
0.53
0.40
0.38
0.49
0.71
0.94
1.10
1.18
1.16
1.06
0.88
0.58
0.14
-0.41
-1.02
-1.61
-2.13
-2.53
-2.80
-2.89
-2.76
-2.42
-1.95
-1.48
-1.17
-1.12
-1.30
-1.63
-1.96
-2.19
-2.32
-2.38
-2.45
-2.57
-2.75
-2.95
-3.10
-3.16
-3.08
-2.82
-2.34
-1.66
-0.79
0.19
1.23
2.25
3.23
4.15
4.94
5.54
5.84
5.80
5.43
4.83
4.13
3.46
2.91
2.48
2.18
2.02
2.01
2.10
2.23
2.26
2.08
1.67
1.11
0.61
0.35
0.45
0.86
1.42
1.95
2.30
2.42
2.32
2.05
1.63
1.07
0.42
-0.25
-0.78
-1.06
-1.04
-0.77
-0.39
-0.06
0.14
0.19
0.13
-0.01
-0.19
-0.43
-0.70
-0.96
-1.14
-1.19
-1.10
-0.92
-0.77
-0.74
-0.91
-1.23
-1.60
-1.86
-1.89
-1.66
-1.23
-0.73
-0.32
-0.10
-0.10
-0.25
-0.44
-0.62
-0.73
-0.81
-0.87
-0.92
-0.90
-0.76
-0.47
-0.08
0.31
0.57
0.64
0.50
0.25
-0.01
-0.19
-0.29
-0.31
-0.29
-0.24
-0.15
0.00
0.18
0.33
0.38
0.28
0.02
-0.33
-0.69
-1.01
-1.23
-1.35
-1.38
-1.33
-1.21
-1.00
-0.72
-0.38
-0.01
0.34
0.64
0.87
1.02
1.10
1.15
1.16
1.13
1.03
0.82
0.51
0.14
-0.21
-0.45
-0.53
-0.48
-0.39
-0.39
-0.60
-1.07
-1.74
-2.49
-3.14
-3.58
-3.75
-3.63
-3.28
-2.76
-2.12
-1.41
-0.70
-0.04
0.52
0.97
1.37
1.78
2.30
2.93
3.57
4.04
4.19
3.94
3.40
2.79
2.34
2.20
2.32
2.52
2.56
2.31
1.77
1.10
0.51
0.14
0.01
0.02
-0.01
-0.15
-0.40
-0.64
-0.72
-0.58
-0.28
0.04
0.21
0.13
-0.17
-0.54
-0.86
-1.02
-1.03
-0.96
-0.90
-0.91
-1.00
-1.10
-1.16
-1.12
-0.99
-0.81
-0.64
-0.53
-0.47
-0.43
-0.36
-0.22
-0.02
0.20
0.38
0.46
0.45
0.40
0.35
0.33
0.30
0.20
-0.01
-0.32
-0.63
-0.79
-0.69
-0.33
0.17
0.63
0.84
0.72
0.32
-0.20
-0.69
-1.03
-1.21
-1.24
-1.15
-0.94
-0.59
-0.10
0.46
0.93
1.19
1.18
0.94
0.65
0.46
0.48
0.68
0.95
1.15
1.22
1.17
1.07
0.98
0.93
0.89
0.81
0.65
0.40
0.10
-0.20
-0.47
-0.68
-0.83
-0.94
-1.01
-1.06
-1.05
-0.94
-0.70
-0.37
-0.03
0.19
0.22
0.06
-0.16
-0.30
-0.26
-0.03
0.29
0.57
0.70
0.68
0.56
0.46
0.45
0.56
0.78
1.03
1.24
1.41
1.55
1.74
1.97
2.16
2.16
1.84
1.18
0.36
-0.36
-0.74
-0.71
-0.47
-0.29
-0.42
-0.90
-1.54
-2.10
-2.42
-2.47
-2.41
-2.39
-2.43
-2.46
-2.32
-1.93
-1.35
-0.78
-0.42
-0.38
-0.60
-0.85
-0.94
-0.73
-0.29
0.22
0.62
0.85
0.94
1.00
1.11
1.24
1.31
1.19
0.85
0.40
0.00
-0.19
-0.10
0.21
0.62
0.95
1.06
0.89
0.45
-0.14
-0.75
-1.21
-1.42
-1.35
-1.04
-0.59
-0.10
0.31
0.57
0.66
0.56
0.33
0.06
-0.18
-0.32
-0.39
-0.44
-0.54
-0.72
-0.92
-1.03
-0.91
-0.55
-0.01
0.50
0.78
0.70
0.29
-0.30
-0.85
-1.17
-1.18
-0.93
-0.54
-0.18
0.03
0.04
-0.10
-0.25
-0.28
-0.12
0.23
0.71
1.21
1.65
2.00
2.22
2.32
2.27
2.05
1.69
1.27
0.89
0.61
0.45
0.35
0.25
0.14
0.05
0.02
0.09
0.22
0.33
0.36
0.26
0.01
-0.31
-0.65
-0.94
-1.14
-1.25
-1.28
-1.27
-1.21
-1.08
-0.85
-0.52
-0.14
0.21
0.42
0.44
0.29
0.09
-0.05
-0.05
0.08
0.25
0.37
0.36
0.25
0.13
0.09
0.18
0.37
0.55
0.63
0.51
0.22
-0.14
-0.44
-0.63
-0.71
-0.77
-0.85
-0.95
-1.02
-0.99
-0.82
-0.57
-0.34
-0.22
-0.23
-0.30
-0.31
-0.20
0.02
0.28
0.46
0.53
0.48
0.39
0.33
0.38
0.54
0.79
1.08
1.31
1.44
1.45
1.32
1.10
0.85
0.62
0.43
0.28
0.16
0.05
-0.10
-0.29
-0.52
-0.77
-1.00
-1.16
-1.21
-1.15
-1.02
-0.86
-0.72
-0.63
-0.59
-0.63
-0.71
-0.80
-0.82
-0.68
-0.33
0.16
0.66
1.00
1.05
0.81
0.40
-0.01
-0.30
-0.44
-0.52
-0.58
-0.65
-0.66
-0.56
-0.36
-0.12
0.01
-0.03
-0.24
-0.51
-0.73
-0.81
-0.76
-0.65
-0.58
-0.58
-0.64
-0.70
-0.68
-0.56
-0.34
-0.06
0.21
0.42
0.57
0.70
0.86
1.06
1.30
1.52
1.64
1.62
1.42
1.10
0.76
0.51
0.46
0.64
0.98
1.33
1.56
1.61
1.49
1.28
1.08
0.92
0.78
0.64
0.47
0.23
-0.10
-0.51
-0.97
-1.42
-1.78
-1.95
-1.93
-1.72
-1.40
-1.01
-0.56
-0.08
0.38
0.76
0.95
0.95
0.80
0.59
0.39
0.21
0.00
-0.26
-0.55
-0.81
-0.92
-0.86
-0.64
-0.37
-0.15
-0.04
-0.03
-0.04
0.04
0.23
0.54
0.85
1.05
1.04
0.81
0.43
0.01
-0.29
-0.42
-0.37
-0.26
-0.24
-0.40
-0.76
-1.19
-1.49
-1.52
-1.22
-0.66
-0.05
0.42
0.59
0.48
0.21
-0.01
-0.03
0.17
0.52
0.85
1.04
1.04
0.89
0.69
0.48
0.29
0.08
-0.17
-0.43
-0.62
-0.66
-0.54
-0.33
-0.16
-0.12
-0.26
-0.51
-0.79
-1.03
-1.21
-1.33
-1.38
-1.34
-1.17
-0.86
-0.45
-0.03
0.29
0.44
0.44
0.37
0.36
0.47
0.68
0.87
0.93
0.80
0.51
0.17
-0.05
-0.06
0.12
0.42
0.69
0.83
0.82
0.72
0.60
0.50
0.43
0.33
0.17
-0.03
-0.20
-0.25
-0.13
0.10
0.30
0.29
-0.03
-0.63
-1.34
-1.96
-2.29
-2.26
-1.93
-1.42
-0.86
-0.36
0.01
0.23
0.29
0.21
0.05
-0.10
-0.14
-0.01
0.34
0.85
1.44
1.97
2.29
2.31
2.02
1.51
0.96
0.51
0.27
0.19
0.19
0.15
0.02
-0.18
-0.38
-0.53
-0.61
-0.62
-0.58
-0.54
-0.50
-0.50
-0.54
-0.60
-0.67
-0.69
-0.63
-0.46
-0.21
0.08
0.35
0.50
0.44
0.17
-0.27
-0.74
-1.07
-1.13
-0.89
-0.46
-0.00
0.30
0.35
0.17
-0.15
-0.48
-0.75
-0.93
-1.05
-1.13
-1.17
-1.11
-0.88
-0.47
0.08
0.63
1.04
1.21
1.13
0.89
0.63
0.48
0.50
0.68
0.95
1.20
1.35
1.37
1.27
1.12
0.98
0.87
0.76
0.62
0.44
0.25
0.13
0.13
0.25
0.42
0.55
0.58
0.49
0.33
0.14
-0.00
-0.08
-0.11
-0.13
-0.17
-0.27
-0.42
-0.62
-0.82
-0.98
-1.08
-1.10
-1.04
-0.88
-0.63
-0.31
0.05
0.39
0.68
0.87
0.99
1.05
1.07
1.03
0.92
0.71
0.44
0.12
-0.19
-0.45
-0.65
-0.76
-0.81
-0.80
-0.80
-0.84
-0.94
-1.10
-1.23
-1.27
-1.20
-1.05
-0.92
-0.91
-1.05
-1.28
-1.48
-1.56
-1.44
-1.17
-0.83
-0.51
-0.26
-0.10
-0.01
0.05
0.12
0.18
0.23
0.26
0.29
0.36
0.49
0.72
1.01
1.27
1.43
1.42
1.30
1.16
1.13
1.27
1.57
1.93
2.19
2.25
2.05
1.65
1.16
0.72
0.42
0.28
0.22
0.13
-0.10
-0.52
-1.08
-1.67
-2.11
-2.31
-2.22
-1.89
-1.43
-0.97
-0.59
-0.36
-0.33
-0.52
-0.92
-1.42
-1.84
-1.98
-1.73
-1.16
-0.49
0.00
0.09
-0.24
-0.86
-1.49
-1.91
-2.04
-1.91
-1.61
-1.22
-0.77
-0.29
0.20
0.64
0.97
1.15
1.20
1.19
1.21
1.30
1.49
1.72
1.93
2.01
1.88
1.49
0.84
0.02
-0.83
-1.52
-1.95
-2.07
-1.93
-1.60
-1.19
-0.75
-0.28
0.21
0.72
1.17
1.48
1.60
1.53
1.33
1.11
1.00
1.04
1.19
1.39
1.51
1.51
1.39
1.23
1.13
1.18
1.40
1.73
2.07
2.28
2.26
2.00
1.56
1.08
0.70
0.46
0.33
0.21
0.01
-0.33
-0.76
-1.20
-1.56
-1.78
-1.84
-1.75
-1.51
-1.12
-0.58
0.01
0.52
0.77
0.64
0.12
-0.60
-1.29
-1.67
-1.61
-1.13
-0.41
0.30
0.79
0.96
0.84
0.55
0.19
-0.14
-0.40
-0.57
-0.64
-0.63
-0.60
-0.64
-0.85
-1.24
-1.72
-2.12
-2.26
-2.08
-1.63
-1.02
-0.38
0.23
0.83
1.44
2.04
2.53
2.77
2.70
2.35
1.82
1.21
0.61
0.05
-0.43
-0.77
-0.90
-0.80
-0.49
-0.07
0.31
0.56
0.67
0.71
0.76
0.90
1.07
1.17
1.09
0.77
0.26
-0.29
-0.72
-0.92
-0.87
-0.68
-0.49
-0.40
-0.44
-0.54
-0.58
-0.50
-0.25
0.11
0.49
0.84
1.11
1.30
1.40
1.43
1.36
1.20
0.96
0.65
0.30
-0.07
-0.41
-0.69
-0.84
-0.84
-0.70
-0.48
-0.29
-0.18
-0.21
-0.32
-0.46
-0.56
-0.61
-0.61
-0.58
-0.50
-0.35
-0.12
0.14
0.33
0.36
0.18
-0.16
-0.54
-0.82
-0.89
-0.73
-0.41
-0.05
0.20
0.24
0.04
-0.38
-0.90
-1.40
-1.76
-1.88
-1.72
-1.33
-0.75
-0.11
0.50
0.99
1.31
1.43
1.38
1.21
0.99
0.82
0.76
0.85
1.03
1.20
1.22
1.04
0.67
0.22
-0.18
-0.49
-0.69
-0.80
-0.82
-0.69
-0.32
0.27
0.95
1.52
1.74
1.51
0.87
0.04
-0.74
-1.25
-1.38
-1.18
-0.76
-0.29
0.10
0.32
0.33
0.13
-0.23
-0.70
-1.16
-1.54
-1.73
-1.68
-1.39
-0.93
-0.37
0.20
0.68
1.01
1.13
1.03
0.73
0.34
0.02
-0.11
0.03
0.38
0.83
1.23
1.48
1.50
1.28
0.84
0.24
-0.40
-0.94
-1.23
-1.19
-0.84
-0.33
0.18
0.58
0.81
0.93
0.98
1.00
0.95
0.77
0.44
0.01
-0.46
-0.84
-1.05
-1.06
-0.92
-0.71
-0.55
-0.47
-0.44
-0.37
-0.19
0.09
0.38
0.56
0.54
0.37
0.18
0.14
0.35
0.77
1.25
1.59
1.64
1.40
0.98
0.56
0.34
0.42
0.78
1.32
1.89
2.32
2.55
2.57
2.43
2.21
1.95
1.67
1.34
0.92
0.42
-0.11
-0.59
-0.97
-1.25
-1.53
-1.89
-2.37
-2.91
-3.33
-3.47
-3.28
-2.83
-2.31
-1.89
-1.67
-1.60
-1.61
-1.65
-1.69
-1.76
-1.82
-1.76
-1.49
-0.95
-0.19
0.63
1.33
1.80
1.99
1.93
1.69
1.32
0.90
0.48
0.13
-0.11
-0.21
-0.20
-0.15
-0.14
-0.21
-0.38
-0.60
-0.80
-0.91
-0.87
-0.67
-0.32
0.12
0.57
0.93
1.14
1.16
1.04
0.84
0.66
0.56
0.55
0.56
0.51
0.33
0.04
-0.26
-0.45
-0.43
-0.19
0.19
0.54
0.71
0.64
0.36
-0.01
-0.35
-0.58
-0.70
-0.74
-0.76
-0.77
-0.77
-0.73
-0.66
-0.58
-0.49
-0.39
-0.27
-0.15
-0.07
-0.08
-0.18
-0.29
-0.35
-0.31
-0.21
-0.13
-0.17
-0.29
-0.37
-0.21
0.27
1.00
1.77
2.34
2.56
2.42
2.01
1.45
0.83
0.17
-0.47
-1.02
-1.36
-1.39
-1.12
-0.65
-0.17
0.14
0.17
-0.08
-0.51
-0.97
-1.32
-1.47
-1.42
-1.21
-0.93
-0.65
-0.37
-0.10
0.18
0.45
0.64
0.68
0.53
0.21
-0.20
-0.57
-0.83
-0.92
-0.84
-0.66
-0.40
-0.10
0.23
0.56
0.88
1.14
1.25
1.15
0.81
0.29
-0.30
-0.80
-1.07
-1.04
-0.72
-0.22
0.28
0.65
0.78
0.66
0.36
-0.03
-0.43
-0.76
-0.97
-1.00
-0.83
-0.51
-0.14
0.16
0.27
0.18
-0.00
-0.09
0.07
0.49
1.06
1.55
1.77
1.66
1.28
0.76
0.26
-0.17
-0.53
-0.86
-1.13
-1.31
-1.31
-1.12
-0.78
-0.39
-0.08
0.11
0.20
0.27
0.39
0.56
0.73
0.82
0.80
0.68
0.52
0.38
0.23
0.05
-0.22
-0.58
-0.99
-1.35
-1.57
-1.56
-1.33
-0.90
-0.37
0.18
0.66
1.00
1.19
1.21
1.11
0.91
0.64
0.37
0.11
-0.09
-0.19
-0.19
-0.12
-0.03
-0.01
-0.13
-0.39
-0.76
-1.13
-1.40
-1.48
-1.35
-1.03
-0.61
-0.18
0.18
0.39
0.41
0.26
0.04
-0.13
-0.09
0.21
0.72
1.29
1.75
1.98
1.95
1.73
1.38
0.98
0.54
0.09
-0.32
-0.61
-0.72
-0.61
-0.36
-0.10
0.05
-0.00
-0.23
-0.51
-0.72
-0.75
-0.60
-0.36
-0.14
-0.01
0.05
0.10
0.21
0.40
0.60
0.71
0.62
0.31
-0.13
-0.57
-0.89
-1.02
-0.96
-0.78
-0.55
-0.32
-0.10
0.10
0.27
0.38
0.39
0.26
-0.02
-0.37
-0.75
-1.04
-1.21
-1.22
-1.10
-0.90
-0.69
-0.53
-0.39
-0.25
-0.05
0.25
0.62
1.00
1.30
1.47
1.49
1.37
1.11
0.72
0.25
-0.18
-0.43
-0.39
-0.07
0.44
0.94
1.29
1.45
1.49
1.51
1.59
1.69
1.72
1.58
1.26
0.82
0.37
-0.01
-0.31
-0.58
-0.84
-1.13
-1.40
-1.62
-1.71
-1.64
-1.42
-1.11
-0.75
-0.44
-0.20
-0.04
0.05
0.10
0.09
-0.02
-0.25
-0.59
-0.92
-1.12
-1.06
-0.72
-0.19
0.39
0.87
1.20
1.35
1.35
1.23
0.97
0.61
0.18
-0.23
-0.53
-0.68
-0.68
-0.61
-0.55
-0.54
-0.60
-0.68
-0.72
-0.71
-0.65
-0.60
-0.60
-0.68
-0.84
-1.00
-1.11
-1.10
-0.98
-0.81
-0.69
-0.65
-0.68
-0.69
-0.55
-0.21
0.34
1.01
1.68
2.29
2.81
3.22
3.50
3.54
3.25
2.57
1.58
0.48
-0.45
-1.00
-1.14
-0.98
-0.76
-0.68
-0.79
-0.99
-1.12
-1.07
-0.82
-0.45
-0.10
0.17
0.34
0.49
0.67
0.91
1.14
1.28
1.27
1.11
0.91
0.76
0.73
0.82
0.96
1.08
1.14
1.17
1.23
1.35
1.53
1.73
1.88
1.96
1.96
1.86
1.64
1.29
0.81
0.31
-0.11
-0.35
-0.39
-0.31
-0.24
-0.31
-0.55
-0.91
-1.30
-1.66
-1.93
-2.12
-2.24
-2.28
-2.27
-2.20
-2.10
-2.04
-2.10
-2.31
-2.62
-2.88
-2.93
-2.65
-2.05
-1.30
-0.61
-0.15
-0.01
-0.10
-0.31
-0.48
-0.49
-0.31
0.06
0.53
1.03
1.46
1.71
1.76
1.62
1.38
1.07
0.75
0.44
0.18
0.03
0.09
0.38
0.81
1.20
1.34
1.12
0.62
0.02
-0.41
-0.58
-0.52
-0.43
-0.50
-0.80
-1.19
-1.43
-1.33
-0.84
-0.11
0.57
0.94
0.89
0.45
-0.17
-0.73
-1.05
-1.05
-0.82
-0.51
-0.30
-0.30
-0.49
-0.78
-1.02
-1.11
-1.06
-0.92
-0.79
-0.72
-0.72
-0.71
-0.64
-0.48
-0.26
-0.04
0.10
0.16
0.16
0.16
0.19
0.25
0.27
0.18
-0.06
-0.41
-0.73
-0.87
-0.71
-0.28
0.30
0.87
1.30
1.57
1.76
1.97
2.20
2.35
2.28
1.89
1.24
0.51
-0.05
-0.31
-0.27
-0.07
0.12
0.23
0.27
0.30
0.35
0.39
0.35
0.22
0.04
-0.09
-0.07
0.14
0.46
0.76
0.91
0.82
0.46
-0.09
-0.72
-1.25
-1.52
-1.45
-1.07
-0.54
-0.04
0.29
0.39
0.34
0.23
0.18
0.21
0.32
0.42
0.42
0.25
-0.10
-0.54
-0.95
-1.20
-1.25
-1.15
-1.01
-0.94
-0.94
-0.96
-0.92
-0.78
-0.58
-0.45
-0.47
-0.66
-0.92
-1.14
-1.23
-1.15
-0.91
-0.54
-0.06
0.50
1.07
1.55
1.87
1.98
1.91
1.74
1.53
1.33
1.10
0.82
0.49
0.17
-0.04
-0.08
0.06
0.29
0.47
0.47
0.26
-0.09
-0.47
-0.74
-0.84
-0.77
-0.56
-0.27
0.02
0.26
0.38
0.31
0.04
-0.39
-0.85
-1.18
-1.24
-0.99
-0.49
0.10
0.57
0.78
0.68
0.32
-0.15
-0.56
-0.79
-0.79
-0.66
-0.51
-0.46
-0.50
-0.57
-0.57
-0.43
-0.22
-0.05
-0.08
-0.33
-0.74
-1.17
-1.44
-1.46
-1.25
-0.93
-0.62
-0.42
-0.34
-0.34
-0.39
-0.49
-0.75
-1.20
-1.82
-2.37
-2.55
-2.12
-1.04
0.48
2.04
3.27
3.96
4.14
3.96
3.56
3.03
2.37
1.59
0.81
0.19
-0.13
-0.11
0.15
0.49
0.78
0.94
0.97
0.84
0.56
0.13
-0.39
-0.84
-1.07
-0.98
-0.59
-0.08
0.35
0.56
0.50
0.26
-0.05
-0.31
-0.50
-0.62
-0.68
-0.69
-0.64
-0.49
-0.28
-0.04
0.19
0.39
0.54
0.63
0.66
0.60
0.43
0.17
-0.10
-0.32
-0.42
-0.43
-0.40
-0.43
-0.55
-0.72
-0.83
-0.75
-0.43
0.05
0.56
0.94
1.11
1.05
0.76
0.30
-0.25
-0.76
-1.04
-0.90
-0.28
0.72
1.84
2.73
3.17
3.12
2.71
2.17
1.64
1.17
0.71
0.23
-0.23
-0.61
-0.81
-0.82
-0.71
-0.58
-0.52
-0.55
-0.63
-0.69
-0.70
-0.67
-0.64
-0.61
-0.59
-0.54
-0.46
-0.38
-0.36
-0.47
-0.69
-0.96
-1.15
-1.15
-0.93
-0.56
-0.18
0.10
0.22
0.21
0.14
0.10
0.10
0.14
0.17
0.18
0.13
0.02
-0.16
-0.39
-0.64
-0.84
-0.93
-0.90
-0.75
-0.53
-0.30
-0.08
0.09
0.20
0.20
0.10
-0.06
-0.21
-0.24
-0.07
0.35
0.92
1.48
1.85
1.84
1.41
0.67
-0.14
-0.73
-0.90
-0.60
0.06
0.86
1.58
2.08
2.33
2.36
2.21
1.89
1.40
0.78
0.11
-0.53
-1.00
-1.24
-1.23
-1.03
-0.75
-0.55
-0.59
-0.93
-1.49
-2.08
-2.44
-2.40
-1.99
-1.38
-0.82
-0.47
-0.33
-0.24
-0.01
0.44
1.02
1.53
1.77
1.64
1.18
0.54
-0.06
-0.46
-0.60
-0.49
-0.22
0.14
0.46
0.70
0.83
0.84
0.75
0.59
0.39
0.18
-0.01
-0.14
-0.19
-0.18
-0.18
-0.27
-0.49
-0.84
-1.23
-1.57
-1.76
-1.76
-1.61
-1.38
-1.13
-0.89
-0.62
-0.33
-0.04
0.16
0.18
-0.01
-0.30
-0.51
-0.44
0.00
0.72
1.52
2.16
2.46
2.44
2.19
1.87
1.58
1.35
1.13
0.88
0.59
0.25
-0.10
-0.46
-0.79
-1.06
-1.19
-1.13
-0.89
-0.55
-0.26
-0.12
-0.18
-0.35
-0.48
-0.44
-0.22
0.10
0.38
0.47
0.38
0.16
-0.04
-0.12
-0.08
0.03
0.10
0.11
0.07
0.06
0.14
0.30
0.46
0.52
0.39
0.12
-0.20
-0.40
-0.40
-0.21
0.07
0.30
0.39
0.33
0.21
0.09
0.03
0.02
-0.02
-0.10
-0.24
-0.39
-0.51
-0.59
-0.64
-0.70
-0.74
-0.71
-0.52
-0.13
0.42
1.00
1.44
1.62
1.53
1.24
0.89
0.58
0.41
0.37
0.47
0.65
0.87
1.08
1.20
1.13
0.83
0.27
-0.43
-1.13
-1.64
-1.86
-1.75
-1.39
-0.94
-0.57
-0.41
-0.48
-0.71
-1.00
-1.23
-1.34
-1.33
-1.22
-1.04
-0.79
-0.48
-0.14
0.17
0.40
0.50
0.51
0.48
0.50
0.61
0.80
0.98
1.03
0.91
0.66
0.38
0.21
0.22
0.38
0.59
0.71
0.62
0.29
-0.20
-0.72
-1.12
-1.28
-1.18
-0.87
-0.49
-0.18
-0.04
-0.11
-0.31
-0.53
-0.66
-0.65
-0.52
-0.33
-0.17
-0.06
0.01
0.07
0.14
0.18
0.17
0.11
0.08
0.15
0.40
0.82
1.31
1.75
2.03
2.13
2.10
1.99
1.79
1.43
0.88
0.15
-0.61
-1.16
-1.34
-1.11
-0.65
-0.19
0.01
-0.11
-0.49
-0.94
-1.28
-1.46
-1.49
-1.39
-1.16
-0.79
-0.26
0.35
0.89
1.20
1.19
0.88
0.40
-0.09
-0.46
-0.65
-0.66
-0.49
-0.17
0.21
0.57
0.77
0.74
0.49
0.14
-0.17
-0.32
-0.31
-0.22
-0.17
-0.23
-0.39
-0.55
-0.60
-0.52
-0.35
-0.18
-0.11
-0.16
-0.28
-0.39
-0.39
-0.27
-0.04
0.25
0.53
0.78
0.97
1.05
1.01
0.82
0.49
0.10
-0.22
-0.37
-0.25
0.11
0.61
1.07
1.34
1.33
1.07
0.72
0.47
0.44
0.65
0.96
1.16
1.05
0.58
-0.18
-1.00
-1.66
-2.01
-2.00
-1.73
-1.30
-0.82
-0.33
0.14
0.55
0.87
1.05
1.07
0.99
0.93
0.98
1.21
1.55
1.84
1.93
1.74
1.35
0.91
0.57
0.38
0.30
0.22
0.04
-0.20
-0.44
-0.59
-0.63
-0.65
-0.73
-0.92
-1.17
-1.36
-1.40
-1.25
-1.00
-0.75
-0.61
-0.63
-0.78
-1.00
-1.22
-1.38
-1.43
-1.39
-1.24
-1.02
-0.75
-0.41
-0.05
0.30
0.53
0.57
0.38
-0.00
-0.46
-0.84
-1.07
-1.11
-1.00
-0.77
-0.46
-0.09
0.32
0.68
0.92
0.95
0.77
0.48
0.23
0.16
0.30
0.57
0.79
0.81
0.56
0.11
-0.36
-0.68
-0.75
-0.60
-0.35
-0.15
-0.07
-0.11
-0.20
-0.27
-0.30
-0.30
-0.28
-0.25
-0.14
0.10
0.50
0.95
1.31
1.41
1.19
0.70
0.11
-0.42
-0.76
-0.91
-0.94
-0.91
-0.87
-0.80
-0.66
-0.41
-0.07
0.27
0.50
0.55
0.40
0.13
-0.13
-0.24
-0.16
0.09
0.40
0.63
0.74
0.77
0.79
0.87
1.01
1.12
1.08
0.83
0.43
0.02
-0.21
-0.18
0.04
0.31
0.41
0.22
-0.24
-0.85
-1.45
-1.87
-1.99
-1.84
-1.48
-1.03
-0.59
-0.23
0.03
0.21
0.34
0.43
0.48
0.50
0.52
0.60
0.79
1.06
1.32
1.40
1.18
0.63
-0.13
-0.91
-1.50
-1.77
-1.70
-1.38
-0.91
-0.40
0.08
0.53
0.92
1.23
1.43
1.48
1.38
1.19
0.93
0.66
0.38
0.09
-0.21
-0.45
-0.56
-0.50
-0.28
0.02
0.30
0.46
0.48
0.39
0.23
0.06
-0.12
-0.29
-0.44
-0.55
-0.62
-0.68
-0.80
-1.00
-1.27
-1.54
-1.69
-1.64
-1.40
-1.03
-0.66
-0.36
-0.18
-0.10
-0.06
-0.04
-0.03
-0.05
-0.14
-0.27
-0.39
-0.41
-0.26
0.05
0.46
0.84
1.07
1.11
1.00
0.82
0.65
0.56
0.53
0.52
0.49
0.43
0.35
0.31
0.35
0.48
0.70
0.94
1.12
1.16
1.03
0.74
0.37
0.04
-0.19
-0.27
-0.23
-0.12
0.02
0.18
0.32
0.44
0.47
0.37
0.16
-0.11
-0.32
-0.35
-0.16
0.18
0.56
0.82
0.88
0.74
0.46
0.11
-0.21
-0.45
-0.61
-0.68
-0.68
-0.64
-0.61
-0.60
-0.61
-0.61
-0.55
-0.43
-0.28
-0.18
-0.20
-0.37
-0.66
-0.95
-1.11
-1.05
-0.79
-0.43
-0.12
0.04
0.03
-0.06
-0.13
-0.12
-0.03
0.08
0.20
0.32
0.52
0.84
1.27
1.68
1.91
1.86
1.49
0.90
0.23
-0.35
-0.75
-0.91
-0.88
-0.74
-0.60
-0.52
-0.52
-0.57
-0.61
-0.57
-0.43
-0.21
0.04
0.31
0.57
0.80
0.95
0.96
0.78
0.40
-0.08
-0.54
-0.84
-0.91
-0.74
-0.39
0.01
0.37
0.59
0.67
0.64
0.59
0.55
0.53
0.47
0.30
-0.02
-0.43
-0.84
-1.13
-1.27
-1.28
-1.24
-1.25
-1.34
-1.51
-1.72
-1.91
-2.01
-2.01
-1.88
-1.65
-1.38
-1.13
-0.99
-1.00
-1.16
-1.39
-1.56
-1.48
-1.01
-0.13
1.02
2.23
3.24
3.87
4.11
4.03
3.74
3.33
2.83
2.27
1.74
1.32
1.09
1.02
1.00
0.88
0.59
0.15
-0.32
-0.72
-0.99
-1.14
-1.19
-1.14
-1.00
-0.76
-0.46
-0.16
0.06
0.17
0.18
0.14
0.07
-0.01
-0.11
-0.22
-0.32
-0.35
-0.29
-0.10
0.18
0.49
0.75
0.85
0.77
0.51
0.17
-0.16
-0.36
-0.39
-0.31
-0.18
-0.07
-0.04
-0.05
-0.07
-0.08
-0.08
-0.11
-0.22
-0.41
-0.64
-0.85
-0.99
-1.03
-0.99
-0.91
-0.82
-0.72
-0.63
-0.55
-0.48
-0.45
-0.48
-0.58
-0.66
-0.66
-0.47
-0.07
0.48
1.06
1.52
1.78
1.83
1.79
1.75
1.76
1.82
1.79
1.56
1.08
0.40
-0.30
-0.83
-1.07
-1.01
-0.79
-0.58
-0.56
-0.74
-1.05
-1.34
-1.48
-1.39
-1.10
-0.63
-0.05
0.55
1.09
1.45
1.52
1.29
0.83
0.30
-0.17
-0.46
-0.54
-0.44
-0.22
0.09
0.43
0.72
0.91
0.94
0.86
0.74
0.68
0.73
0.88
1.05
1.16
1.18
1.11
0.96
0.72
0.34
-0.19
-0.84
-1.48
-1.94
-2.11
-1.97
-1.63
-1.31
-1.18
-1.31
-1.66
-2.07
-2.38
-2.50
-2.43
-2.22
-1.90
-1.48
-0.92
-0.25
0.43
1.00
1.36
1.50
1.54
1.61
1.82
2.10
2.29
2.23
1.87
1.29
0.70
0.30
0.17
0.25
0.41
0.51
0.49
0.38
0.28
0.23
0.24
0.27
0.30
0.33
0.41
0.58
0.82
1.04
1.09
0.85
0.33
-0.32
-0.86
-1.09
-0.93
-0.47
0.09
0.54
0.75
0.72
0.53
0.31
0.13
0.05
0.04
0.07
0.09
0.05
-0.10
-0.36
-0.71
-1.10
-1.45
-1.67
-1.76
-1.73
-1.62
-1.46
-1.29
-1.16
-1.08
-1.08
-1.14
-1.21
-1.23
-1.16
-1.04
-0.98
-1.03
-1.21
-1.41
-1.45
-1.17
-0.51
0.46
1.55
2.55
3.31
3.79
4.01
4.00
3.78
3.36
2.73
1.97
1.17
0.47
-0.02
-0.26
-0.30
-0.26
-0.28
-0.43
-0.71
-1.08
-1.45
-1.73
-1.83
-1.71
-1.40
-0.97
-0.52
-0.15
0.06
0.12
0.08
0.01
-0.01
0.02
0.11
0.21
0.34
0.51
0.76
1.09
1.41
1.62
1.60
1.32
0.84
0.30
-0.14
-0.40
-0.44
-0.36
-0.24
-0.15
-0.12
-0.15
-0.23
-0.29
-0.31
-0.28
-0.22
-0.22
-0.36
-0.66
-1.05
-1.41
-1.57
-1.50
-1.25
-1.02
-0.93
-1.02
-1.18
-1.22
-0.98
-0.45
0.26
0.96
1.48
1.73
1.71
1.51
1.24
1.02
0.91
0.90
0.91
0.87
0.69
0.42
0.13
-0.08
-0.15
-0.10
-0.02
0.02
-0.02
-0.10
-0.18
-0.20
-0.13
-0.00
0.17
0.35
0.52
0.63
0.65
0.55
0.34
0.08
-0.18
-0.37
-0.48
-0.53
-0.55
-0.55
-0.53
-0.50
-0.44
-0.35
-0.24
-0.12
-0.02
0.05
0.05
-0.03
-0.20
-0.44
-0.72
-0.97
-1.14
-1.20
-1.15
-1.04
-0.92
-0.86
-0.88
-0.97
-1.11
-1.24
-1.31
-1.27
-1.10
-0.77
-0.33
0.15
0.53
0.73
0.75
0.67
0.65
0.84
1.26
1.84
2.42
2.84
3.04
3.01
2.81
2.47
1.98
1.34
0.57
-0.24
-0.95
-1.40
-1.51
-1.32
-0.96
-0.59
-0.32
-0.19
-0.15
-0.13
-0.12
-0.12
-0.17
-0.27
-0.38
-0.42
-0.35
-0.18
-0.01
0.08
0.04
-0.07
-0.17
-0.17
-0.05
0.12
0.23
0.22
0.07
-0.14
-0.32
-0.43
-0.47
-0.48
-0.50
-0.54
-0.58
-0.60
-0.60
-0.57
-0.52
-0.45
-0.32
-0.13
0.12
0.39
0.60
0.70
0.66
0.51
0.28
0.05
-0.16
-0.30
-0.37
-0.38
-0.33
-0.26
-0.24
-0.31
-0.49
-0.75
-1.01
-1.19
-1.20
-1.05
-0.77
-0.45
-0.15
0.11
0.34
0.56
0.79
1.00
1.15
1.24
1.26
1.21
1.06
0.82
0.50
0.19
-0.01
0.02
0.31
0.76
1.24
1.56
1.64
1.47
1.15
0.82
0.59
0.51
0.55
0.62
0.61
0.45
0.09
-0.43
-1.00
-1.47
-1.73
-1.69
-1.37
-0.91
-0.45
-0.12
-0.00
-0.09
-0.29
-0.49
-0.56
-0.46
-0.19
0.18
0.51
0.72
0.74
0.57
0.31
0.02
-0.21
-0.32
-0.32
-0.20
-0.00
0.25
0.50
0.71
0.79
0.66
0.32
-0.18
-0.70
-1.09
-1.22
-1.13
-0.93
-0.77
-0.74
-0.83
-0.91
-0.87
-0.65
-0.30
0.08
0.36
0.52
0.55
0.48
0.34
0.17
-0.01
-0.13
-0.17
-0.12
-0.01
0.13
0.26
0.40
0.53
0.62
0.58
0.37
0.03
-0.29
-0.41
-0.21
0.26
0.80
1.20
1.33
1.26
1.14
1.08
1.10
1.08
0.90
0.48
-0.12
-0.73
-1.23
-1.51
-1.58
-1.48
-1.28
-1.03
-0.78
-0.58
-0.42
-0.28
-0.12
0.08
0.31
0.50
0.62
0.64
0.61
0.56
0.48
0.30
-0.05
-0.54
-1.09
-1.53
-1.72
-1.65
-1.41
-1.17
-1.06
-1.09
-1.17
-1.21
-1.11
-0.88
-0.57
-0.29
-0.10
-0.03
-0.06
-0.12
-0.13
-0.01
0.29
0.77
1.38
2.02
2.58
2.97
3.11
2.98
2.59
2.03
1.42
0.85
0.39
0.01
-0.34
-0.71
-1.08
-1.39
-1.53
-1.44
-1.15
-0.78
-0.44
-0.19
-0.03
0.08
0.14
0.14
0.02
-0.21
-0.47
-0.63
-0.59
-0.31
0.13
0.59
0.93
1.08
1.05
0.88
0.63
0.38
0.20
0.17
0.30
0.55
0.84
1.04
1.08
0.96
0.74
0.49
0.23
-0.02
-0.29
-0.54
-0.73
-0.82
-0.77
-0.62
-0.49
-0.47
-0.65
-0.99
-1.41
-1.75
-1.87
-1.71
-1.29
-0.72
-0.18
0.18
0.25
0.02
-0.41
-0.86
-1.15
-1.15
-0.80
-0.19
0.56
1.32
1.97
2.42
2.64
2.55
2.15
1.49
0.70
-0.01
-0.48
-0.62
-0.50
-0.27
-0.11
-0.12
-0.32
-0.64
-0.95
-1.15
-1.19
-1.04
-0.74
-0.38
-0.05
0.18
0.28
0.29
0.28
0.32
0.41
0.49
0.48
0.32
0.00
-0.40
-0.81
-1.11
-1.25
-1.21
-0.98
-0.60
-0.14
0.32
0.67
0.85
0.80
0.54
0.11
-0.43
-0.97
-1.38
-1.56
-1.45
-1.13
-0.75
-0.48
-0.44
-0.62
-0.88
-1.09
-1.16
-1.07
-0.88
-0.62
-0.30
0.10
0.54
0.93
1.15
1.12
0.90
0.66
0.57
0.78
1.23
1.80
2.30
2.58
2.62
2.46
2.20
1.91
1.60
1.26
0.84
0.35
-0.16
-0.58
-0.82
-0.79
-0.53
-0.14
0.20
0.37
0.33
0.14
-0.10
-0.26
-0.29
-0.19
-0.03
0.15
0.29
0.39
0.43
0.40
0.29
0.08
-0.21
-0.53
-0.82
-1.01
-1.03
-0.85
-0.49
-0.00
0.51
0.92
1.17
1.22
1.06
0.75
0.31
-0.20
-0.74
-1.22
-1.56
-1.69
-1.59
-1.32
-1.01
-0.78
-0.72
-0.86
-1.16
-1.52
-1.82
-1.96
-1.88
-1.59
-1.14
-0.63
-0.13
0.28
0.58
0.80
0.95
1.04
1.08
1.09
1.07
1.08
1.13
1.21
1.29
1.30
1.22
1.08
0.92
0.77
0.65
0.53
0.37
0.17
-0.02
-0.13
-0.11
-0.00
0.08
0.03
-0.16
-0.42
-0.62
-0.63
-0.41
-0.01
0.45
0.88
1.20
1.35
1.30
1.02
0.55
-0.05
-0.61
-0.97
-1.06
-0.89
-0.59
-0.32
-0.17
-0.14
-0.13
-0.04
0.15
0.37
0.47
0.35
-0.00
-0.48
-0.92
-1.17
-1.23
-1.16
-1.09
-1.09
-1.18
-1.26
-1.28
-1.19
-1.02
-0.82
-0.64
-0.50
-0.38
-0.25
-0.09
0.08
0.25
0.37
0.41
0.38
0.31
0.30
0.41
0.69
1.14
1.67
2.18
2.54
2.67
2.50
2.07
1.44
0.74
0.13
-0.28
-0.45
-0.42
-0.30
-0.20
-0.18
-0.26
-0.41
-0.61
-0.82
-1.02
-1.19
-1.27
-1.23
-1.03
-0.70
-0.30
0.11
0.46
0.71
0.86
0.91
0.90
0.82
0.69
0.52
0.34
0.19
0.14
0.20
0.38
0.60
0.79
0.89
0.87
0.72
0.48
0.19
-0.14
-0.48
-0.81
-1.11
-1.37
-1.57
-1.72
-1.82
-1.88
-1.87
-1.79
-1.61
-1.33
-0.99
-0.65
-0.35
-0.12
0.04
0.10
0.06
-0.08
-0.32
-0.55
-0.65
-0.48
0.02
0.79
1.64
2.34
2.71
2.71
2.43
2.03
1.62
1.28
0.97
0.61
0.17
-0.31
-0.75
-1.03
-1.06
-0.87
-0.59
-0.35
-0.27
-0.34
-0.48
-0.59
-0.57
-0.44
-0.22
0.02
0.25
0.45
0.60
0.69
0.68
0.58
0.40
0.21
0.04
-0.12
-0.30
-0.50
-0.65
-0.65
-0.41
0.06
0.62
1.10
1.31
1.19
0.82
0.32
-0.15
-0.53
-0.78
-0.89
-0.88
-0.73
-0.52
-0.35
-0.37
-0.70
-1.30
-2.03
-2.64
-2.91
-2.75
-2.26
-1.60
-0.99
-0.54
-0.28
-0.19
-0.24
-0.37
-0.54
-0.64
-0.55
-0.19
0.45
1.30
2.23
3.08
3.70
4.00
3.93
3.47
2.71
1.77
0.85
0.11
-0.34
-0.48
-0.37
-0.11
0.16
0.34
0.39
0.28
0.05
-0.22
-0.48
-0.67
-0.78
-0.78
-0.69
-0.52
-0.29
-0.06
0.09
0.11
-0.00
-0.17
-0.28
-0.23
0.01
0.36
0.69
0.88
0.91
0.81
0.69
0.63
0.65
0.68
0.62
0.40
0.02
-0.42
-0.77
-0.92
-0.84
-0.62
-0.39
-0.27
-0.31
-0.44
-0.57
-0.62
-0.59
-0.54
-0.54
-0.61
-0.69
-0.72
-0.64
-0.49
-0.34
-0.24
-0.19
-0.14
-0.01
0.23
0.52
0.75
0.86
0.80
0.65
0.53
0.53
0.70
0.98
1.24
1.34
1.22
0.86
0.34
-0.25
-0.79
-1.21
-1.49
-1.62
-1.62
-1.51
-1.33
-1.11
-0.89
-0.71
-0.53
-0.36
-0.18
-0.01
0.14
0.26
0.33
0.38
0.40
0.34
0.18
-0.06
-0.27
-0.35
-0.21
0.13
0.53
0.84
0.92
0.76
0.41
0.01
-0.33
-0.55
-0.65
-0.68
-0.66
-0.59
-0.45
-0.24
-0.03
0.10
0.04
-0.25
-0.73
-1.23
-1.57
-1.57
-1.22
-0.65
-0.07
0.29
0.32
0.03
-0.42
-0.86
-1.18
-1.34
-1.35
-1.20
-0.89
-0.36
0.38
1.23
2.06
2.70
3.05
3.13
3.03
2.87
2.72
2.56
2.33
1.99
1.54
1.05
0.60
0.23
-0.03
-0.20
-0.31
-0.39
-0.44
-0.51
-0.62
-0.78
-1.00
-1.19
-1.28
-1.17
-0.84
-0.32
0.26
0.74
0.97
0.88
0.48
-0.08
-0.58
-0.82
-0.69
-0.22
0.41
0.94
1.20
1.12
0.79
0.36
-0.01
-0.26
-0.42
-0.54
-0.67
-0.81
-0.90
-0.92
-0.87
-0.82
-0.81
-0.87
-0.93
-0.93
-0.85
-0.72
-0.67
-0.78
-1.04
-1.32
-1.44
-1.28
-0.84
-0.31
0.08
0.15
-0.11
-0.50
-0.75
-0.66
-0.17
0.62
1.47
2.18
2.63
2.81
2.73
2.44
1.96
1.28
0.48
-0.35
-1.04
-1.46
-1.58
-1.43
-1.12
-0.77
-0.46
-0.22
-0.05
0.05
0.10
0.12
0.12
0.16
0.28
0.51
0.84
1.17
1.41
1.44
1.19
0.69
0.05
-0.54
-0.94
-1.08
-0.97
-0.73
-0.47
-0.25
-0.07
0.11
0.30
0.46
0.53
0.43
0.16
-0.23
-0.63
-0.94
-1.10
-1.11
-1.00
-0.79
-0.53
-0.27
-0.05
0.09
0.12
0.07
0.00
-0.02
0.04
0.18
0.37
0.54
0.68
0.76
0.79
0.77
0.70
0.59
0.45
0.32
0.22
0.16
0.15
0.21
0.37
0.65
1.04
1.45
1.71
1.67
1.23
0.45
-0.49
-1.31
-1.80
-1.86
-1.58
-1.18
-0.85
-0.70
-0.69
-0.67
-0.53
-0.26
0.06
0.28
0.30
0.15
-0.03
-0.11
-0.03
0.12
0.19
0.06
-0.29
-0.73
-1.07
-1.18
-1.04
-0.73
-0.43
-0.24
-0.20
-0.24
-0.27
-0.20
-0.03
0.17
0.29
0.23
-0.02
-0.40
-0.75
-0.94
-0.90
-0.64
-0.27
0.09
0.37
0.55
0.68
0.78
0.83
0.80
0.63
0.34
0.04
-0.11
-0.03
0.28
0.71
1.09
1.26
1.19
0.95
0.66
0.46
0.42
0.52
0.69
0.86
0.97
1.02
1.03
1.04
1.06
1.05
0.94
0.67
0.23
-0.30
-0.79
-1.07
-1.07
-0.78
-0.33
0.13
0.41
0.43
0.19
-0.24
-0.72
-1.11
-1.30
-1.24
-0.95
-0.48
0.01
0.40
0.52
0.34
-0.09
-0.60
-0.98
-1.09
-0.88
-0.45
0.06
0.47
0.69
0.66
0.36
-0.14
-0.76
-1.32
-1.67
-1.70
-1.40
-0.90
-0.41
-0.07
0.02
-0.05
-0.17
-0.19
-0.04
0.24
0.59
0.87
1.02
0.97
0.76
0.45
0.11
-0.17
-0.36
-0.42
-0.33
-0.10
0.20
0.48
0.62
0.52
0.15
-0.39
-0.94
-1.30
-1.37
-1.12
-0.67
-0.14
0.35
0.72
0.95
1.05
1.04
0.97
0.88
0.79
0.72
0.65
0.54
0.39
0.24
0.16
0.23
0.44
0.71
0.91
0.95
0.81
0.55
0.30
0.16
0.17
0.29
0.43
0.52
0.52
0.40
0.17
-0.13
-0.46
-0.74
-0.88
-0.83
-0.58
-0.21
0.14
0.34
0.34
0.15
-0.11
-0.31
-0.36
-0.22
0.03
0.30
0.50
0.56
0.49
0.31
0.05
-0.23
-0.49
-0.68
-0.80
-0.87
-0.91
-0.98
-1.08
-1.19
-1.25
-1.22
-1.10
-0.92
-0.74
-0.61
-0.54
-0.51
-0.48
-0.47
-0.50
-0.64
-0.87
-1.13
-1.28
-1.19
-0.82
-0.24
0.42
1.02
1.46
1.73
1.86
1.85
1.71
1.45
1.08
0.70
0.39
0.22
0.15
0.14
0.09
0.00
-0.11
-0.21
-0.23
-0.19
-0.10
-0.04
-0.06
-0.13
-0.20
-0.21
-0.08
0.15
0.43
0.63
0.70
0.61
0.41
0.19
-0.01
-0.19
-0.36
-0.55
-0.69
-0.73
-0.58
-0.24
0.22
0.66
0.97
1.07
0.96
0.71
0.40
0.10
-0.17
-0.39
-0.56
-0.67
-0.74
-0.76
-0.75
-0.76
-0.77
-0.78
-0.76
-0.67
-0.51
-0.29
-0.04
0.23
0.46
0.60
0.58
0.38
0.03
-0.39
-0.74
-0.94
-0.94
-0.76
-0.46
-0.09
0.30
0.72
1.13
1.51
1.79
1.91
1.83
1.55
1.10
0.54
-0.04
-0.56
-0.90
-1.00
-0.85
-0.50
-0.08
0.28
0.44
0.33
-0.02
-0.50
-0.98
-1.29
-1.35
-1.14
-0.68
-0.08
0.53
1.02
1.29
1.31
1.13
0.85
0.54
0.29
0.10
-0.02
-0.06
0.00
0.19
0.47
0.77
0.95
0.90
0.57
0.01
-0.63
-1.19
-1.54
-1.59
-1.35
-0.94
-0.48
-0.15
-0.04
-0.17
-0.49
-0.86
-1.20
-1.45
-1.60
-1.63
-1.53
-1.27
-0.89
-0.50
-0.27
-0.36
-0.81
-1.48
-2.09
-2.38
-2.16
-1.45
-0.41
0.75
1.85
2.78
3.52
4.11
4.53
4.77
4.74
4.40
3.74
2.86
1.88
0.96
0.24
-0.26
-0.55
-0.72
-0.82
-0.89
-0.94
-0.97
-0.98
-0.98
-0.96
-0.90
-0.75
-0.50
-0.17
0.14
0.30
0.24
-0.02
-0.40
-0.73
-0.88
-0.83
-0.62
-0.38
-0.22
-0.20
-0.29
-0.42
-0.49
-0.44
-0.23
0.08
0.42
0.66
0.72
0.55
0.21
-0.20
-0.55
-0.79
-0.91
-0.98
-1.06
-1.16
-1.24
-1.26
-1.18
-0.99
-0.69
-0.28
0.22
0.79
1.33
1.76
1.95
1.88
1.58
1.13
0.68
0.30
0.06
-0.02
0.04
0.22
0.47
0.73
0.94
1.05
1.02
0.86
0.58
0.20
-0.22
-0.62
-0.95
-1.19
-1.35
-1.44
-1.50
-1.51
-1.46
-1.34
-1.15
-0.92
-0.72
-0.58
-0.50
-0.46
-0.39
-0.23
0.05
0.40
0.75
0.99
1.04
0.91
0.71
0.58
0.64
0.89
1.20
1.37
1.27
0.89
0.40
-0.00
-0.16
-0.07
0.14
0.28
0.21
-0.08
-0.51
-0.93
-1.23
-1.35
-1.33
-1.25
-1.19
-1.20
-1.26
-1.28
-1.21
-1.02
-0.76
-0.51
-0.36
-0.33
-0.40
-0.49
-0.59
-0.64
-0.62
-0.44
-0.04
0.60
1.44
2.31
3.04
3.49
3.64
3.50
3.14
2.56
1.79
0.86
-0.09
-0.88
-1.36
-1.47
-1.29
-0.99
-0.73
-0.62
-0.68
-0.83
-0.99
-1.09
-1.10
-1.03
-0.90
-0.73
-0.50
-0.23
0.07
0.38
0.61
0.73
0.70
0.55
0.36
0.22
0.21
0.35
0.59
0.81
0.91
0.82
0.56
0.23
-0.04
-0.18
-0.20
-0.18
-0.23
-0.43
-0.77
-1.15
-1.43
-1.54
-1.48
-1.36
-1.32
-1.43
-1.74
-2.18
-2.66
-3.09
-3.41
-3.60
-3.65
-3.56
-3.31
-2.92
-2.49
-2.16
-2.10
-2.40
-2.98
-3.57
-3.79
-3.33
-2.06
-0.17
1.99
3.97
5.46
6.36
6.75
6.79
6.59
6.18
5.49
4.48
3.26
2.06
1.13
0.65
0.58
0.76
0.94
0.95
0.78
0.53
0.34
0.27
0.27
0.27
0.22
0.19
0.27
0.51
0.88
1.25
1.45
1.38
1.10
0.73
0.48
0.46
0.66
0.95
1.16
1.17
0.99
0.74
0.54
0.46
0.44
0.33
0.03
-0.46
-1.03
-1.48
-1.66
-1.51
-1.14
-0.72
-0.42
-0.34
-0.48
-0.74
-1.01
-1.19
-1.25
-1.23
-1.17
-1.09
-0.95
-0.70
-0.34
0.03
0.25
0.20
-0.11
-0.49
-0.64
-0.38
0.31
1.18
1.87
2.14
1.95
1.48
1.04
0.80
0.75
0.72
0.52
0.06
-0.57
-1.18
-1.57
-1.66
-1.46
-1.13
-0.81
-0.61
-0.56
-0.60
-0.67
-0.68
-0.56
-0.31
0.04
0.44
0.82
1.12
1.31
1.36
1.27
1.04
0.68
0.28
-0.05
-0.20
-0.09
0.27
0.80
1.35
1.80
2.05
2.10
1.99
1.78
1.51
1.18
0.80
0.41
0.10
-0.01
0.15
0.55
1.07
1.51
1.65
1.39
0.73
-0.18
-1.16
-2.02
-2.65
-3.04
-3.22
-3.27
-3.27
-3.25
-3.21
-3.14
-3.05
-2.95
-2.87
-2.82
-2.73
-2.54
-2.19
-1.64
-0.95
-0.18
0.58
1.29
1.91
2.41
2.76
2.90
2.84
2.58
2.18
1.72
1.26
0.82
0.43
0.08
-0.25
-0.58
-0.92
-1.25
-1.51
-1.63
-1.60
-1.43
-1.23
-1.08
-1.02
-1.00
-0.92
-0.70
-0.33
0.12
0.56
0.87
1.01
1.03
0.97
0.90
0.86
0.85
0.85
0.85
0.82
0.76
0.69
0.61
0.49
0.33
0.11
-0.17
-0.46
-0.71
-0.90
-1.06
-1.23
-1.45
-1.74
-2.08
-2.40
-2.67
-2.89
-3.08
-3.26
-3.39
-3.38
-3.13
-2.58
-1.74
-0.71
0.35
1.32
2.10
2.71
3.25
3.87
4.65
5.55
6.39
6.98
7.14
6.85
6.22
5.39
4.46
3.45
2.33
1.12
-0.10
-1.18
-1.96
-2.38
-2.47
-2.36
-2.18
-2.02
-1.92
-1.89
-1.88
-1.85
-1.74
-1.53
-1.20
-0.78
-0.38
-0.11
-0.08
-0.35
-0.85
-1.40
-1.77
-1.78
-1.37
-0.64
0.19
0.88
1.28
1.38
1.28
1.12
1.00
0.95
0.94
0.90
0.76
0.51
0.17
-0.20
-0.55
-0.84
-1.08
-1.27
-1.43
-1.58
-1.70
-1.79
-1.86
-1.92
-1.96
-1.94
-1.79
-1.44
-0.88
-0.23
0.30
0.49
0.23
-0.38
-1.04
-1.40
-1.18
-0.35
0.86
2.11
3.08
3.61
3.75
3.62
3.36
2.98
2.44
1.72
0.85
-0.03
-0.73
-1.14
-1.20
-0.98
-0.58
-0.13
0.24
0.43
0.41
0.18
-0.15
-0.45
-0.63
-0.65
-0.54
-0.37
-0.21
-0.08
-0.00
0.00
-0.12
-0.41
-0.83
-1.26
-1.53
-1.50
-1.12
-0.49
0.23
0.84
1.23
1.33
1.20
0.90
0.52
0.12
-0.24
-0.50
-0.66
-0.72
-0.70
-0.69
-0.73
-0.88
-1.10
-1.32
-1.43
-1.34
-1.03
-0.60
-0.19
0.07
0.12
-0.02
-0.23
-0.42
-0.50
-0.45
-0.32
-0.20
-0.17
-0.25
-0.37
-0.42
-0.26
0.17
0.82
1.50
2.00
2.17
2.00
1.62
1.20
0.87
0.65
0.48
0.31
0.14
0.00
-0.05
-0.01
0.07
0.09
-0.01
-0.24
-0.54
-0.83
-1.01
-1.04
-0.90
-0.62
-0.27
0.09
0.40
0.62
0.75
0.83
0.85
0.79
0.62
0.33
-0.08
-0.51
-0.84
-0.93
-0.75
-0.34
0.19
0.67
0.95
0.98
0.77
0.43
0.09
-0.12
-0.13
0.02
0.22
0.31
0.16
-0.21
-0.71
-1.17
-1.43
-1.47
-1.34
-1.16
-0.99
-0.84
-0.65
-0.40
-0.09
0.18
0.34
0.36
0.29
0.18
0.10
0.03
-0.08
-0.25
-0.49
-0.69
-0.74
-0.56
-0.13
0.46
1.08
1.57
1.87
1.95
1.86
1.68
1.45
1.17
0.82
0.39
-0.10
-0.55
-0.87
-0.97
-0.85
-0.57
-0.24
0.04
0.17
0.12
-0.10
-0.44
-0.80
-1.08
-1.19
-1.12
-0.92
-0.69
-0.50
-0.37
-0.23
0.01
0.41
0.94
1.55
2.14
2.64
3.00
3.19
3.22
3.11
2.92
2.68
2.42
2.14
1.82
1.45
1.03
0.62
0.22
-0.15
-0.52
-0.92
-1.36
-1.80
-2.18
-2.43
-2.56
-2.57
-2.51
-2.40
-2.27
-2.12
-1.97
-1.86
-1.82
-1.85
-1.91
-1.89
-1.67
-1.21
-0.61
-0.03
0.34
0.38
0.17
-0.09
-0.18
0.04
0.52
1.09
1.56
1.80
1.84
1.78
1.70
1.61
1.44
1.12
0.65
0.14
-0.25
-0.40
-0.31
-0.12
0.02
-0.00
-0.18
-0.43
-0.60
-0.64
-0.53
-0.33
-0.10
0.15
0.44
0.76
1.05
1.18
1.03
0.57
-0.09
-0.75
-1.15
-1.17
-0.83
-0.30
0.21
0.52
0.59
0.50
0.39
0.33
0.29
0.18
-0.03
-0.30
-0.50
-0.50
-0.27
0.05
0.28
0.22
-0.16
-0.77
-1.42
-1.94
-2.24
-2.33
-2.24
-2.04
-1.74
-1.40
-1.04
-0.68
-0.35
-0.08
0.09
0.14
0.03
-0.26
-0.64
-1.00
-1.15
-0.98
-0.48
0.26
1.05
1.72
2.14
2.31
2.27
2.09
1.80
1.43
0.98
0.49
0.02
-0.35
-0.57
-0.62
-0.52
-0.32
-0.08
0.14
0.31
0.43
0.50
0.57
0.63
0.71
0.77
0.82
0.84
0.86
0.87
0.87
0.79
0.56
0.15
-0.40
-0.94
-1.32
-1.39
-1.14
-0.64
-0.05
0.48
0.85
1.05
1.12
1.06
0.89
0.59
0.19
-0.26
-0.66
-0.92
-1.00
-0.94
-0.79
-0.66
-0.57
-0.54
-0.52
-0.46
-0.34
-0.16
0.03
0.18
0.22
0.17
0.03
-0.14
-0.32
-0.50
-0.69
-0.86
-0.97
-0.96
-0.78
-0.43
0.04
0.53
0.96
1.28
1.43
1.42
1.21
0.84
0.37
-0.10
-0.49
-0.73
-0.81
-0.79
-0.71
-0.62
-0.50
-0.36
-0.20
-0.05
0.07
0.11
0.05
-0.12
-0.35
-0.56
-0.65
-0.49
-0.06
0.57
1.18
1.55
1.54
1.16
0.57
-0.01
-0.42
-0.62
-0.64
-0.56
-0.42
-0.21
0.05
0.35
0.62
0.77
0.76
0.57
0.27
-0.06
-0.34
-0.52
-0.57
-0.50
-0.37
-0.27
-0.27
-0.41
-0.64
-0.88
-1.00
-0.95
-0.75
-0.50
-0.34
-0.35
-0.48
-0.61
-0.62
-0.45
-0.18
0.08
0.23
0.32
0.47
0.79
1.31
1.91
2.43
2.72
2.74
2.54
2.17
1.67
1.03
0.28
-0.52
-1.21
-1.64
-1.74
-1.54
-1.21
-0.94
-0.88
-1.05
-1.38
-1.71
-1.87
-1.76
-1.35
-0.73
-0.02
0.63
1.13
1.42
1.50
1.39
1.11
0.72
0.30
-0.04
-0.23
-0.23
-0.06
0.21
0.50
0.76
0.96
1.08
1.11
1.02
0.78
0.39
-0.08
-0.57
-0.98
-1.25
-1.36
-1.30
-1.14
-0.95
-0.80
-0.78
-0.91
-1.12
-1.28
-1.26
-0.99
-0.54
-0.07
0.25
0.34
0.25
0.11
0.03
0.03
0.09
0.16
0.24
0.38
0.66
1.07
1.54
1.94
2.17
2.18
1.97
1.61
1.13
0.56
-0.07
-0.71
-1.23
-1.51
-1.47
-1.17
-0.75
-0.43
-0.36
-0.55
-0.89
-1.16
-1.17
-0.85
-0.27
0.42
1.04
1.47
1.61
1.48
1.10
0.55
-0.09
-0.69
-1.14
-1.35
-1.29
-0.96
-0.43
0.22
0.86
1.36
1.60
1.53
1.20
0.71
0.21
-0.17
-0.38
-0.43
-0.36
-0.22
-0.10
-0.06
-0.16
-0.40
-0.73
-1.04
-1.20
-1.16
-0.96
-0.72
-0.53
-0.44
-0.38
-0.26
-0.03
0.27
0.53
0.67
0.66
0.59
0.58
0.70
0.93
1.17
1.31
1.29
1.15
0.95
0.76
0.58
0.37
0.08
-0.30
-0.71
-1.09
-1.36
-1.51
-1.61
-1.70
-1.85
-2.02
-2.11
-2.01
-1.67
-1.13
-0.48
0.16
0.70
1.12
1.42
1.59
1.62
1.50
1.28
1.00
0.77
0.63
0.60
0.65
0.73
0.80
0.86
0.93
0.97
0.95
0.80
0.50
0.09
-0.33
-0.66
-0.82
-0.81
-0.68
-0.55
-0.48
-0.49
-0.53
-0.55
-0.56
-0.58
-0.68
-0.87
-1.12
-1.33
-1.41
-1.32
-1.06
-0.69
-0.28
0.09
0.36
0.48
0.42
0.22
0.01
-0.05
0.18
0.73
1.46
2.14
2.54
2.60
2.37
2.06
1.82
1.67
1.55
1.29
0.82
0.20
-0.39
-0.78
-0.89
-0.78
-0.62
-0.54
-0.59
-0.72
-0.83
-0.82
-0.71
-0.56
-0.45
-0.44
-0.51
-0.59
-0.62
-0.59
-0.52
-0.48
-0.51
-0.63
-0.79
-0.92
-0.94
-0.79
-0.47
-0.01
0.53
1.04
1.44
1.67
1.67
1.43
0.97
0.39
-0.19
-0.65
-0.90
-0.95
-0.90
-0.86
-0.92
-1.08
-1.29
-1.43
-1.41
-1.23
-0.95
-0.66
-0.42
-0.23
-0.06
0.15
0.39
0.56
0.58
0.39
0.05
-0.27
-0.40
-0.22
0.25
0.84
1.39
1.76
1.92
1.95
1.91
1.84
1.71
1.44
0.99
0.40
-0.21
-0.66
-0.85
-0.76
-0.49
-0.19
-0.03
-0.09
-0.32
-0.61
-0.80
-0.81
-0.64
-0.37
-0.13
-0.01
-0.00
-0.05
-0.07
-0.01
0.11
0.21
0.23
0.17
0.08
0.06
0.16
0.37
0.59
0.74
0.75
0.67
0.57
0.52
0.55
0.59
0.55
0.39
0.08
-0.34
-0.78
-1.16
-1.39
-1.41
-1.24
-0.93
-0.54
-0.22
-0.04
-0.05
-0.21
-0.44
-0.61
-0.61
-0.38
0.05
0.58
1.05
1.32
1.30
1.00
0.52
-0.00
-0.41
-0.63
-0.68
-0.59
-0.42
-0.19
0.06
0.34
0.57
0.67
0.54
0.15
-0.42
-0.99
-1.38
-1.45
-1.21
-0.77
-0.31
-0.00
0.08
-0.04
-0.24
-0.40
-0.40
-0.19
0.18
0.58
0.90
1.06
1.03
0.87
0.67
0.48
0.32
0.17
0.01
-0.11
-0.14
-0.06
0.11
0.26
0.27
0.08
-0.28
-0.64
-0.85
-0.79
-0.51
-0.13
0.15
0.21
0.05
-0.26
-0.59
-0.83
-0.97
-1.06
-1.14
-1.24
-1.30
-1.25
-1.03
-0.69
-0.34
-0.08
0.01
-0.04
-0.15
-0.17
-0.03
0.26
0.59
0.81
0.82
0.59
0.19
-0.24
-0.53
-0.58
-0.35
0.14
0.78
1.45
2.06
2.51
2.73
2.69
2.39
1.88
1.26
0.65
0.12
-0.22
-0.34
-0.23
0.05
0.38
0.65
0.75
0.67
0.48
0.29
0.21
0.26
0.36
0.41
0.33
0.14
-0.05
-0.12
-0.04
0.11
0.23
0.22
0.08
-0.12
-0.29
-0.38
-0.40
-0.41
-0.48
-0.63
-0.81
-0.96
-1.01
-0.92
-0.70
-0.40
-0.10
0.13
0.22
0.19
0.08
-0.05
-0.13
-0.16
-0.16
-0.15
-0.16
-0.20
-0.27
-0.38
-0.56
-0.79
-1.06
-1.31
-1.50
-1.60
-1.61
-1.52
-1.33
-1.04
-0.67
-0.28
0.01
0.12
0.01
-0.24
-0.45
-0.46
-0.16
0.41
1.10
1.76
2.28
2.63
2.84
2.95
2.95
2.79
2.42
1.84
1.12
0.37
-0.27
-0.70
-0.86
-0.77
-0.52
-0.21
0.09
0.33
0.53
0.69
0.81
0.85
0.83
0.79
0.81
0.96
1.26
1.59
1.81
1.77
1.43
0.92
0.42
0.18
0.34
0.91
1.73
2.55
3.09
3.15
2.65
1.70
0.56
-0.50
-1.25
-1.57
-1.46
-1.03
-0.40
0.26
0.78
1.00
0.83
0.32
-0.38
-1.05
-1.53
-1.76
-1.82
-1.84
-1.96
-2.18
-2.46
-2.70
-2.84
-2.90
-2.89
-2.87
-2.84
-2.81
-2.76
-2.69
-2.58
-2.47
-2.38
-2.35
-2.39
-2.43
-2.37
-2.12
-1.67
-1.10
-0.59
-0.25
-0.15
-0.18
-0.20
-0.08
0.23
0.66
1.09
1.43
1.61
1.63
1.53
1.31
1.03
0.76
0.62
0.67
0.93
1.28
1.61
1.76
1.69
1.46
1.23
1.16
1.30
1.58
1.81
1.76
1.32
0.55
-0.36
-1.17
-1.66
-1.77
-1.53
-1.08
-0.57
-0.09
0.33
0.63
0.75
0.62
0.21
-0.39
-1.00
-1.41
-1.45
-1.13
-0.58
-0.05
0.29
0.33
0.15
-0.13
-0.35
-0.45
-0.43
-0.39
-0.38
-0.41
-0.42
-0.34
-0.17
0.03
0.14
0.01
-0.37
-0.96
-1.57
-2.04
-2.24
-2.14
-1.82
-1.35
-0.82
-0.28
0.22
0.65
0.95
1.12
1.18
1.15
1.07
0.94
0.76
0.52
0.22
-0.08
-0.34
-0.47
-0.46
-0.32
-0.12
0.06
0.16
0.13
0.01
-0.17
-0.32
-0.36
-0.24
0.04
0.41
0.70
0.78
0.54
0.05
-0.54
-1.01
-1.18
-1.02
-0.66
-0.26
0.02
0.18
0.30
0.44
0.61
0.69
0.55
0.11
-0.58
-1.38
-2.12
-2.65
-2.95
-3.05
-3.01
-2.91
-2.76
-2.59
-2.39
-2.18
-1.98
-1.80
-1.64
-1.48
-1.27
-0.92
-0.37
0.37
1.24
2.10
2.78
3.16
3.23
3.10
2.95
2.95
3.17
3.53
3.89
4.09
4.05
3.81
3.43
3.01
2.58
2.13
1.60
0.99
0.33
-0.27
-0.68
-0.81
-0.65
-0.32
0.01
0.16
0.05
-0.29
-0.75
-1.18
-1.41
-1.37
-1.06
-0.54
0.07
0.61
0.92
0.94
0.67
0.25
-0.13
-0.32
-0.27
-0.02
0.33
0.65
0.86
0.93
0.89
0.77
0.65
0.57
0.56
0.62
0.69
0.70
0.59
0.32
-0.06
-0.50
-0.90
-1.19
-1.34
-1.35
-1.24
-1.07
-0.89
-0.77
-0.74
-0.78
-0.85
-0.88
-0.82
-0.65
-0.41
-0.15
0.08
0.27
0.45
0.68
0.99
1.31
1.54
1.58
1.38
1.03
0.67
0.47
0.50
0.70
0.90
0.90
0.60
0.06
-0.55
-1.01
-1.22
-1.17
-1.02
-0.93
-0.99
-1.16
-1.26
-1.16
-0.80
-0.27
0.26
0.63
0.77
0.74
0.66
0.62
0.62
0.58
0.40
0.06
-0.36
-0.74
-0.94
-0.92
-0.71
-0.40
-0.08
0.17
0.34
0.45
0.49
0.50
0.47
0.41
0.33
0.28
0.29
0.39
0.57
0.77
0.93
0.97
0.86
0.62
0.30
-0.02
-0.29
-0.50
-0.67
-0.79
-0.88
-0.91
-0.83
-0.64
-0.36
-0.03
0.29
0.57
0.81
1.03
1.25
1.45
1.60
1.66
1.57
1.32
0.91
0.37
-0.24
-0.81
-1.20
-1.32
-1.19
-0.93
-0.72
-0.71
-0.89
-1.16
-1.34
-1.31
-1.08
-0.75
-0.43
-0.18
0.00
0.17
0.35
0.49
0.54
0.46
0.31
0.21
0.23
0.37
0.52
0.53
0.33
0.01
-0.29
-0.40
-0.30
-0.09
0.06
0.03
-0.18
-0.43
-0.58
-0.55
-0.36
-0.12
0.03
0.04
-0.04
-0.18
-0.31
-0.41
-0.50
-0.59
-0.67
-0.75
-0.83
-0.94
-1.11
-1.34
-1.56
-1.67
-1.58
-1.24
-0.70
-0.10
0.41
0.66
0.60
0.25
-0.23
-0.65
-0.80
-0.59
-0.04
0.68
1.34
1.79
1.96
1.93
1.86
1.86
1.94
1.99
1.90
1.58
1.09
0.54
0.07
-0.26
-0.47
-0.65
-0.85
-1.06
-1.20
-1.19
-1.01
-0.69
-0.36
-0.08
0.14
0.38
0.71
1.08
1.37
1.41
1.16
0.69
0.22
-0.02
0.03
0.27
0.47
0.47
0.23
-0.07
-0.26
-0.21
0.05
0.33
0.45
0.33
0.04
-0.28
-0.51
-0.62
-0.67
-0.77
-0.95
-1.14
-1.26
-1.20
-0.99
-0.74
-0.58
-0.61
-0.80
-1.04
-1.17
-1.10
-0.77
-0.28
0.23
0.59
0.70
0.56
0.29
0.05
-0.02
0.13
0.42
0.74
0.95
1.00
0.95
0.90
0.95
1.08
1.22
1.22
0.98
0.51
-0.05
-0.50
-0.67
-0.53
-0.23
0.00
-0.03
-0.37
-0.87
-1.28
-1.37
-1.09
-0.58
-0.04
0.37
0.63
0.79
0.95
1.12
1.23
1.15
0.85
0.37
-0.16
-0.56
-0.73
-0.62
-0.25
0.28
0.86
1.34
1.62
1.66
1.52
1.29
1.09
0.95
0.83
0.66
0.44
0.21
0.05
0.01
0.06
0.12
0.06
-0.14
-0.48
-0.89
-1.31
-1.72
-2.08
-2.31
-2.33
-2.11
-1.69
-1.21
-0.85
-0.75
-0.95
-1.31
-1.61
-1.60
-1.18
-0.39
0.57
1.47
2.10
2.39
2.40
2.19
1.87
1.46
0.98
0.46
-0.02
-0.37
-0.53
-0.49
-0.37
-0.29
-0.34
-0.51
-0.72
-0.87
-0.89
-0.79
-0.65
-0.55
-0.52
-0.55
-0.58
-0.54
-0.41
-0.24
-0.10
-0.04
-0.05
-0.08
-0.06
0.05
0.20
0.34
0.41
0.40
0.35
0.37
0.50
0.72
0.96
1.11
1.08
0.88
0.56
0.23
-0.03
-0.17
-0.23
-0.25
-0.28
-0.36
-0.44
-0.50
-0.52
-0.54
-0.60
-0.74
-0.91
-1.03
-1.03
-0.85
-0.51
-0.12
0.21
0.38
0.34
0.13
-0.15
-0.35
-0.38
-0.20
0.10
0.37
0.45
0.31
0.00
-0.35
-0.64
-0.85
-1.06
-1.35
-1.74
-2.13
-2.40
-2.47
-2.40
-2.35
-2.47
-2.85
-3.39
-3.93
-4.34
-4.54
-4.56
-4.50
-4.48
-4.57
-4.83
-5.28
-5.93
-6.80
-7.87
-9.10
-10.40
-11.68
-12.87
-13.95
-14.95
-15.96
-17.01
-18.10
-19.22
-20.37
-21.62
-23.09
-24.91
-27.07
-29.45
-31.67
-33.25
-33.83
-33.32
-32.15
-31.20
-31.56
-33.92
-38.12
-42.85
-46.09
-45.70
-39.90
-27.46
-7.55
20.21
55.48
96.48
139.74
180.38
213.27
234.37
241.62
234.73
214.31
181.06
136.01
81.44
21.88
-36.01
-85.03
-120.01
-139.68
-146.92
-147.21
-146.11
-147.09
-150.84
-156.00
-160.81
-164.45
-167.45
-171.22
-177.08
-185.53
-196.16
-208.04
-220.30
-232.28
-243.45
-252.72
-258.12
-257.04
-246.94
-226.36
-195.60
-156.62
-112.14
-64.52
-15.15
35.19
85.39
133.09
174.61
205.99
224.61
230.38
225.81
214.95
201.70
188.52
176.16
164.32
152.71
141.64
131.93
124.24
118.50
113.74
108.60
101.97
93.59
84.09
74.64
66.34
59.74
54.68
50.47
46.27
41.50
36.05
30.27
24.77
20.13
16.64
14.21
12.49
11.02
9.46
7.74
6.05
4.73
4.02
3.96
4.33
4.73
4.76
4.18
2.99
1.40
-0.25
-1.63
-2.56
-2.96
-2.90
-2.48
-1.84
-1.10
-0.35
0.32
0.86
1.23
1.41
1.46
1.43
1.42
1.56
1.99
2.86
4.41
6.87
10.51
15.56
22.09
30.03
39.08
48.79
58.62
68.14
77.03
85.22
92.80
99.92
106.76
113.42
119.87
125.96
131.38
135.65
138.26
138.81
137.11
133.38
128.38
123.31
119.67
118.91
122.00
129.03
138.91
149.29
156.89
158.14
150.12
131.15
101.09
61.11
13.49
-38.57
-91.05
-139.20
-178.31
-204.72
-217.00
-216.49
-206.87
-192.80
-178.27
-165.60
-155.12
-146.11
-137.65
-129.30
-121.14
-113.44
-106.25
-99.34
-92.35
-85.09
-77.62
-70.25
-63.37
-57.19
-51.71
-46.66
-41.69
-36.56
-31.22
-25.89
-20.98
-16.83
-13.55
-10.98
-8.74
-6.50
-4.24
-2.26
-1.07
-1.05
-2.22
-4.16
-6.21
-7.77
-8.55
-8.59
-8.17
-7.52
-6.78
-5.95
-5.04
-4.16
-3.51
-3.25
-3.42
-3.87
-4.33
-4.54
-4.36
-3.86
-3.23
-2.72
-2.53
-2.69
-3.09
-3.53
-3.78
-3.64
-3.01
-1.92
-0.47
1.18
2.83
4.32
5.51
6.31
6.67
6.54
5.91
4.82
3.38
1.82
0.46
-0.40
-0.54
0.09
1.30
2.73
3.89
4.38
3.92
2.52
0.44
-1.89
-4.03
-5.61
