1685337725.00
64.000000
-0.00
-0.00
-0.00
-0.00
-0.00
-0.00
-0.00
-0.00
-0.00
-0.00
0.00
0.01
0.01
-0.00
-0.03
-0.05
-0.05
0.00
0.13
0.36
0.66
1.01
1.37
1.72
2.06
2.40
2.79
3.24
3.80
4.42
5.06
5.66
6.20
6.68
7.15
7.68
8.31
9.14
10.09
11.04
11.88
12.56
13.14
13.76
14.65
15.96
17.91
20.32
22.90
25.38
27.58
29.57
31.68
34.32
37.81
42.54
48.15
54.10
59.83
64.97
69.58
74.14
79.34
85.71
93.76
103.00
112.62
121.73
129.77
136.75
143.30
150.75
157.77
166.64
177.95
191.79
206.97
220.57
228.25
225.36
208.53
176.87
132.76
80.05
23.07
-34.94
-92.44
-149.16
-205.23
-260.37
-313.74
-363.87
-409.83
-450.91
-486.50
-515.74
-537.23
-549.22
-549.96
-538.37
-514.21
-478.67
-433.88
-382.45
-327.02
-269.84
-212.63
-156.66
-102.95
-52.37
-5.90
35.58
71.43
101.35
125.50
144.38
158.69
169.15
176.37
180.75
182.57
182.07
179.51
175.23
169.65
163.18
156.15
148.81
141.30
133.69
126.02
118.33
110.69
103.16
95.80
88.68
81.83
75.25
68.95
62.95
57.25
51.86
46.78
42.03
37.59
33.45
29.61
26.07
22.81
19.83
17.11
14.67
12.48
10.54
8.83
7.35
6.07
4.98
4.05
3.27
2.62
2.08
1.65
1.31
1.04
0.82
0.63
0.46
0.29
0.12
-0.02
-0.13
-0.19
-0.21
-0.20
-0.19
-0.21
-0.26
-0.33
-0.39
-0.41
-0.39
-0.33
-0.27
-0.24
-0.29
-0.42
-0.59
-0.76
-0.84
-0.82
-0.70
-0.57
-0.54
-0.71
-1.08
-1.58
-2.06
-2.35
-2.36
-2.13
-1.85
-1.74
-2.01
-2.70
-3.65
-4.55
-5.10
-5.13
-4.69
-4.10
-3.78
-4.05
-4.99
-6.35
-7.66
-8.51
-8.63
-8.09
-7.21
-6.42
-6.11
-6.55
-7.92
-10.25
-13.15
-15.59
-16.03
-12.82
-5.12
6.57
20.30
33.30
43.10
48.39
49.36
47.21
43.36
38.85
33.82
28.18
21.94
15.48
9.45
4.40
0.55
-2.32
-4.65
-6.94
-9.37
-11.82
-13.91
-15.28
-15.75
-15.43
-14.68
-13.88
-13.21
-12.58
-11.72
-10.34
-8.39
-6.10
-3.92
-2.30
-1.52
-1.60
-2.27
-3.13
-3.87
-4.29
-4.40
-4.35
-4.24
-4.11
-3.84
-3.28
-2.35
-1.14
0.16
1.30
2.09
2.50
2.58
2.44
2.18
1.87
1.56
1.34
1.30
1.51
1.92
2.40
2.73
2.75
2.40
1.84
1.30
1.03
1.08
1.37
1.58
1.38
0.45
-1.31
-3.80
-6.69
-9.49
-11.64
-12.62
-12.06
-9.88
-6.29
-1.78
3.00
7.42
11.00
13.47
14.82
15.19
14.77
13.68
11.95
9.52
6.43
2.81
-0.99
-4.57
-7.63
-10.12
-12.21
-14.27
-16.60
-19.37
-22.58
-26.11
-29.82
-33.61
-37.38
-40.98
-44.27
-47.09
-49.33
-50.87
-51.47
-50.84
-48.69
-44.84
-39.38
-32.68
-25.20
-17.47
-9.91
-2.90
3.18
8.04
11.58
14.02
15.96
18.19
21.36
25.64
30.70
35.78
40.09
43.10
44.67
45.00
44.40
43.16
41.43
39.31
36.85
34.14
31.32
28.46
25.62
22.77
19.89
16.96
14.05
11.22
8.52
5.88
3.15
0.21
-3.01
-6.56
-10.46
-14.87
-19.99
-25.99
-32.80
-40.06
-47.20
-53.65
-59.05
-63.34
-66.63
-69.06
-70.63
-71.23
-70.70
-68.96
-65.92
-61.47
-55.40
-47.47
-37.61
-26.16
-13.85
-1.67
9.43
18.81
26.31
32.10
36.48
39.77
42.18
43.81
44.83
45.46
45.97
46.66
47.70
49.10
50.68
52.10
53.02
53.24
52.77
51.83
50.75
49.78
48.96
48.10
46.89
45.01
42.26
38.59
34.03
28.65
22.52
15.79
8.69
1.59
-5.10
-11.04
-16.19
-20.78
-25.21
-29.74
-34.24
-38.00
-39.98
-39.21
-35.33
-28.77
-20.67
-12.40
-5.10
0.68
4.89
7.78
9.59
10.46
10.61
10.42
10.41
11.04
12.52
14.60
16.71
18.25
18.85
18.54
17.69
16.78
16.15
15.90
15.92
15.96
15.81
15.30
14.35
12.91
10.97
8.58
5.89
3.14
0.60
-1.52
-3.19
-4.53
-5.83
-7.42
-9.66
-12.70
-16.45
-20.45
-23.94
-26.03
-25.98
-23.48
-18.86
-12.96
-6.86
-1.46
2.70
5.60
7.46
8.58
9.15
9.26
8.94
8.31
7.57
6.98
6.78
7.07
7.80
8.79
9.82
10.64
11.12
11.19
10.88
10.24
9.29
7.97
6.21
3.91
1.09
-2.08
-5.33
-8.40
-11.15
-13.59
-15.86
-18.14
-20.54
-22.99
-25.23
-26.85
-27.41
-26.58
-24.18
-20.26
-15.09
-9.12
-2.90
3.03
8.20
12.34
15.33
17.18
17.96
17.71
16.48
14.41
11.75
8.90
6.35
4.44
3.25
2.54
1.92
1.02
-0.39
-2.29
-4.61
-7.34
-10.61
-14.65
-19.65
-25.62
-32.28
-39.18
-45.77
-51.67
-56.71
-60.94
-64.51
-67.58
-70.26
-72.69
-75.05
-77.50
-80.03
-82.25
-83.39
-82.43
-78.54
-71.42
-61.45
-49.50
-36.63
-23.64
-10.94
1.33
13.08
24.07
33.96
42.42
49.33
54.77
59.01
62.31
64.83
66.65
67.76
68.13
67.78
66.73
65.06
62.86
60.31
57.57
54.75
51.85
48.70
45.12
40.97
36.28
31.26
26.28
21.68
17.71
14.40
11.63
9.18
6.84
4.43
1.81
-1.08
-4.22
-7.41
-10.24
-12.14
-12.51
-11.02
-7.75
-3.23
1.65
5.95
8.98
10.48
10.58
9.66
8.06
5.97
3.34
-0.03
-4.23
-9.15
-14.43
-19.58
-24.13
-27.85
-30.73
-32.84
-34.25
-34.92
-34.75
-33.68
-31.80
-29.26
-26.21
-22.68
-18.68
-14.33
-10.04
-6.50
-4.44
-4.29
-5.99
-8.94
-12.35
-15.46
-18.00
-20.22
-22.66
-25.69
-29.15
-32.34
-34.22
-33.69
-29.84
-22.40
-11.81
0.74
13.63
25.22
34.26
40.22
43.42
45.18
47.03
50.03
54.27
58.95
62.88
65.06
65.11
63.46
61.78
61.32
62.15
62.97
62.09
58.62
52.86
46.08
39.78
36.65
38.05
43.36
50.27
56.29
59.96
60.93
59.51
56.29
54.62
57.08
64.25
74.22
84.10
91.68
95.81
96.42
94.52
95.59
104.64
124.17
152.67
186.21
220.50
251.98
278.50
278.64
241.89
174.65
97.92
31.11
-18.08
-51.37
-73.67
-89.19
-100.79
-104.92
-102.93
-98.24
-95.70
-98.67
-107.03
-117.88
-127.69
-134.28
-135.09
-129.60
-120.30
-112.06
-109.18
-113.01
-121.84
-132.39
-141.58
-146.05
-144.92
-139.51
-132.69
-126.97
-123.21
-121.01
-119.55
-118.46
-117.10
-115.52
-114.16
-113.71
-114.46
-115.79
-116.12
-113.39
-105.62
-91.34
-70.51
-44.65
-16.65
10.25
33.37
51.32
63.95
71.79
75.41
75.10
71.03
63.58
53.62
42.52
31.83
22.80
15.62
9.37
2.60
-5.76
-15.84
-26.83
-37.42
-46.03
-51.40
-53.17
-52.01
-49.12
-45.46
-41.47
-37.12
-32.09
-25.59
-16.50
-4.06
11.70
30.27
51.02
73.51
97.44
118.97
133.18
137.56
133.83
125.83
116.55
107.06
97.30
87.14
77.07
68.14
62.20
60.83
64.76
74.02
88.32
106.96
128.48
151.67
173.35
190.76
202.00
206.33
204.33
197.84
189.15
180.31
172.55
165.24
157.21
146.85
132.44
112.69
86.93
54.90
15.73
-26.11
-67.23
-104.35
-134.62
-156.13
-168.29
-172.14
-170.23
-165.98
-162.46
-162.30
-166.05
-172.59
-179.97
-186.41
-190.94
-193.53
-194.67
-194.87
-195.10
-195.93
-197.65
-200.19
-203.10
-205.29
-204.88
-199.31
-185.97
-163.86
-134.16
-100.50
-68.11
-42.02
-25.32
-18.11
-17.88
-20.91
-24.20
-26.25
-27.05
-27.20
-27.04
-26.27
-24.28
-20.71
-15.89
-10.75
-6.36
-3.45
-2.11
-1.89
-2.00
-1.79
-0.99
0.10
0.83
0.50
-1.25
-4.26
-7.90
-11.39
-14.17
-16.07
-17.31
-18.30
-19.37
-20.60
-21.92
-23.13
-24.03
-24.42
-24.05
-22.60
-19.72
-15.11
-8.62
-0.26
9.85
21.40
33.89
46.64
58.78
69.45
77.94
83.91
87.38
88.65
88.11
86.00
82.35
77.16
70.60
63.08
55.20
47.46
40.02
32.65
25.00
16.84
8.37
0.13
-7.27
-13.54
-18.80
-23.43
-27.71
-31.63
-34.93
-37.39
-39.03
-40.15
-41.13
-42.19
-43.20
-43.96
-44.44
-44.95
-46.06
-48.04
-50.58
-52.57
-52.60
-49.48
-42.87
-33.38
-22.29
-10.98
-0.56
8.39
15.78
21.79
26.75
31.10
35.21
39.31
43.35
47.08
50.40
53.63
57.75
64.02
73.39
85.87
100.23
114.32
125.72
132.54
133.94
130.14
122.23
111.86
100.85
90.88
83.18
78.28
75.77
74.48
72.76
69.13
62.68
53.43
42.17
30.07
18.30
7.72
-1.16
-8.07
-12.86
-15.36
-15.51
-13.40
-9.34
-3.92
2.11
7.93
12.82
16.23
17.84
17.56
15.47
11.80
6.82
0.95
-5.32
-11.36
-16.60
-20.64
-23.50
-25.61
-27.55
-29.69
-31.97
-33.80
-34.39
-33.18
-30.18
-26.02
-21.62
-17.85
-15.11
-13.37
-12.29
-11.68
-11.69
-12.81
-15.67
-20.72
-28.06
-37.46
-48.50
-60.65
-73.09
-84.87
-95.03
-103.10
-109.46
-115.05
-120.44
-124.96
-126.70
-123.67
-115.34
-103.35
-90.77
-80.23
-72.43
-65.92
-58.43
-48.42
-35.77
-21.22
-5.27
12.37
31.96
52.35
70.26
81.35
82.67
74.89
62.54
51.94
47.92
51.34
58.91
65.31
66.21
60.46
50.46
40.44
34.03
32.38
33.89
35.38
34.03
28.78
20.61
11.68
4.11
-0.94
-3.39
-3.87
-3.05
-1.25
1.64
5.87
11.52
18.24
25.25
31.51
36.16
38.97
40.56
42.21
45.36
50.90
58.76
67.90
76.75
83.93
88.79
91.52
92.91
93.82
94.79
95.91
96.97
97.63
97.54
96.33
93.57
88.75
81.47
71.55
59.22
45.11
30.04
14.85
0.17
-13.65
-26.52
-38.53
-49.83
-60.54
-70.80
-80.74
-90.38
-99.57
-107.81
-114.26
-117.87
-117.69
-113.20
-104.56
-92.64
-78.80
-64.50
-50.90
-38.56
-27.38
-16.83
-6.27
4.63
15.78
26.69
36.69
45.30
52.34
57.91
62.15
65.09
66.56
66.34
64.37
60.91
56.50
51.70
46.83
41.84
36.35
29.91
22.33
13.81
4.85
-3.95
-12.22
-19.93
-27.33
-34.68
-41.99
-48.96
-55.10
-60.05
-63.73
-66.40
-68.35
-69.69
-70.15
-69.16
-66.22
-61.09
-54.04
-45.76
-37.18
-29.10
-22.01
-15.96
-10.64
-5.63
-0.63
4.37
9.18
13.54
17.52
21.49
26.13
31.98
39.17
47.33
55.76
63.78
70.97
77.22
82.53
86.81
89.78
91.04
90.28
87.43
82.76
76.76
70.01
63.04
56.20
49.66
43.39
37.31
31.30
25.32
19.35
13.27
6.86
-0.15
-7.86
-15.96
-23.68
-30.00
-34.05
-35.50
-34.76
-32.82
-30.83
-29.68
-29.69
-30.72
-32.38
-34.35
-36.56
-39.08
-41.98
-45.10
-48.02
-50.18
-51.18
-50.97
-49.92
-48.57
-47.32
-46.26
-45.10
-43.49
-41.30
-38.69
-36.14
-34.10
-32.83
-32.25
-32.15
-32.25
-32.48
-32.85
-33.40
-34.07
-34.71
-35.17
-35.37
-35.40
-35.46
-35.84
-36.84
-38.55
-40.73
-42.77
-43.72
-42.62
-38.86
-32.52
-24.39
-15.68
-7.60
-0.94
4.03
7.50
9.82
11.26
12.01
12.22
12.07
11.86
11.88
12.27
13.01
13.83
14.46
14.71
14.59
14.24
13.85
13.50
13.18
12.80
12.25
11.50
10.54
9.31
7.69
5.57
2.93
-0.05
-3.03
-5.66
-7.78
-9.47
-11.05
-12.85
-15.07
-17.79
-20.88
-24.25
-27.76
-31.26
-34.47
-36.94
-38.19
-37.91
-36.08
-33.00
-29.13
-25.02
-21.09
-17.65
-14.98
-13.34
-12.91
-13.74
-15.68
-18.40
-21.49
-24.67
-27.84
-31.12
-34.73
-38.82
-43.38
-48.24
-53.10
-57.66
-61.75
-65.39
-68.79
-72.29
-76.22
-80.75
-85.82
-91.09
-96.00
-99.82
-101.75
-101.05
-97.22
-90.05
-79.87
-67.34
-53.41
-38.93
-24.44
-10.01
4.60
19.65
35.18
50.98
66.77
82.42
98.15
114.38
131.39
148.95
166.20
181.88
194.81
204.30
210.34
213.38
213.97
212.50
209.05
203.56
196.08
186.99
177.09
167.37
158.80
152.01
147.05
143.31
139.67
134.76
127.44
117.10
103.90
88.55
72.05
55.32
38.89
22.95
7.52
-7.32
-21.26
-33.91
-44.93
-54.26
-62.12
-68.83
-74.56
-79.23
-82.54
-84.30
-84.56
-83.64
-81.98
-79.82
-77.12
-73.70
-69.52
-64.85
-60.23
-56.13
-52.71
-49.70
-46.71
-43.60
-40.75
-38.94
-38.92
-41.01
-44.82
-49.47
-53.90
-57.29
-59.16
-59.36
-57.99
-55.22
-51.38
-46.87
-42.17
-37.67
-33.55
-29.78
-26.16
-22.45
-18.51
-14.41
-10.34
-6.65
-3.74
-1.94
-1.43
-2.13
-3.83
-6.18
-8.88
-11.81
-15.00
-18.63
-22.83
-27.51
-32.22
-36.10
-38.04
-37.08
-32.79
-25.60
-16.74
-7.86
-0.47
4.50
6.87
7.05
5.66
3.26
0.34
-2.68
-5.32
-7.07
-7.57
-6.69
-4.56
-1.51
2.16
6.19
10.36
14.43
18.14
21.15
23.15
23.82
22.99
20.66
17.11
12.83
8.45
4.60
1.67
-0.28
-1.59
-2.81
-4.52
-7.09
-10.49
-14.31
-17.88
-20.55
-22.05
-22.56
-22.70
-23.17
-24.36
-26.12
-27.90
-29.15
-29.58
-29.41
-29.20
-29.59
-30.95
-33.28
-36.25
-39.36
-42.11
-43.97
-44.47
-43.28
-40.32
-35.75
-29.92
-23.31
-16.44
-9.75
-3.49
2.29
7.52
11.96
15.23
16.95
16.84
14.85
11.07
6.00
0.30
-5.53
-11.28
-16.82
-21.68
-25.14
-26.57
-25.89
-23.32
-19.52
-15.56
-12.68
-11.87
-13.09
-15.50
-17.78
-18.56
-16.14
-9.01
3.56
21.03
41.96
64.99
89.09
113.62
134.43
146.41
146.88
137.80
123.78
108.57
94.23
81.39
69.97
59.78
51.18
44.72
40.49
38.74
37.57
35.68
32.69
28.85
24.80
21.50
19.76
20.02
22.05
25.11
28.67
32.23
34.21
33.47
29.49
22.63
13.82
4.12
-5.68
-14.94
-23.38
-31.00
-37.74
-43.51
-48.13
-51.42
-53.29
-53.65
-52.26
-49.02
-44.34
-39.05
-34.36
-31.38
-30.67
-32.22
-35.60
-40.27
-45.89
-52.27
-59.15
-65.83
-71.17
-74.06
-74.06
-71.87
-69.07
-67.31
-67.31
-68.37
-68.86
-67.32
-63.57
-58.84
-54.89
-52.65
-51.39
-49.13
-43.96
-35.40
-24.79
-14.38
-5.85
0.61
6.22
12.45
19.92
27.96
35.21
40.75
44.90
49.16
55.37
64.59
76.54
89.67
101.71
110.45
114.32
112.71
106.04
95.64
83.32
70.76
58.99
48.06
37.26
25.71
13.02
-0.34
-13.13
-23.80
-31.14
-34.63
-34.47
-31.36
-26.13
-19.61
-12.62
-5.93
-0.29
3.77
6.12
7.04
7.16
7.18
7.63
8.75
10.53
12.79
15.37
18.15
20.91
23.41
25.31
26.46
26.98
27.41
28.45
30.69
34.30
38.90
43.78
48.17
51.51
53.53
54.17
53.40
51.24
47.72
43.03
37.39
30.87
23.20
13.77
1.95
-12.44
-28.81
-45.73
-61.44
-74.42
-83.80
-89.50
-91.87
-91.30
-87.99
-82.04
-73.75
-63.89
-53.67
-44.48
-37.40
-32.88
-30.60
-29.65
-28.98
-27.76
-25.68
-22.89
-19.86
-17.00
-14.48
-12.20
-9.88
-7.25
-4.22
-0.91
2.47
5.70
8.72
11.59
14.49
17.50
20.54
23.31
25.37
26.29
25.69
23.42
19.57
14.46
8.56
2.40
-3.63
-9.28
-14.42
-18.88
-22.33
-24.21
-23.85
-20.81
-15.09
-7.23
1.88
11.27
20.30
28.66
36.28
42.97
48.37
52.02
53.70
53.64
52.60
51.49
51.02
51.33
52.02
52.46
52.15
50.99
49.19
47.03
44.53
41.34
37.01
31.26
24.42
17.38
11.45
7.75
6.91
8.78
12.57
17.19
21.52
24.71
26.19
25.79
23.70
20.38
16.43
12.29
8.16
3.92
-0.61
-5.40
-10.06
-13.99
-16.71
-18.21
-19.06
-20.02
-21.71
-24.19
-27.06
-29.73
-31.74
-32.97
-33.57
-33.78
-33.94
-34.68
-37.10
-42.80
-53.24
-68.87
-88.35
-108.51
-125.17
-134.62
-134.96
-126.71
-112.39
-95.38
-78.59
-63.68
-51.01
-40.08
-30.27
-21.07
-12.14
-2.94
7.43
20.01
35.47
53.29
71.79
88.62
101.97
111.74
119.92
129.98
145.07
166.27
191.53
216.22
234.69
241.95
234.81
212.43
176.25
129.96
79.19
30.46
-9.83
-36.94
-49.22
-48.47
-39.02
-25.97
-13.41
-3.57
2.19
3.71
1.75
-2.41
-7.42
-12.03
-15.25
-16.45
-15.62
-15.04
-17.05
-22.84
-32.20
-44.09
-57.02
-69.30
-79.28
-85.86
-91.50
-98.85
-108.93
-120.96
-133.25
-144.24
-152.89
-158.77
-162.04
-166.46
-174.71
-186.61
-199.92
-212.74
-225.09
-238.76
-256.11
-257.97
-233.39
-184.82
-125.37
-67.85
-18.78
20.11
49.15
69.79
84.25
92.01
91.77
86.40
79.23
72.35
66.32
60.99
56.67
54.51
53.46
52.69
52.30
53.80
57.07
61.01
64.51
67.33
69.97
71.48
70.83
67.83
62.84
56.42
49.31
42.31
36.13
31.22
26.98
22.92
19.30
16.92
16.57
18.73
23.39
30.02
37.83
45.65
52.56
58.20
62.65
66.16
69.16
72.07
75.23
78.79
82.68
86.66
90.40
93.55
95.75
96.77
96.42
94.47
90.56
84.24
75.08
62.95
48.30
32.24
16.30
1.89
-10.35
-21.00
-31.66
-44.29
-60.15
-79.16
-99.82
-119.79
-136.70
-148.89
-155.58
-156.86
-153.30
-145.79
-135.26
-122.61
-108.70
-94.24
-79.77
-65.63
-51.86
-38.25
-24.41
-10.14
4.39
18.52
31.23
41.41
48.23
51.40
51.29
48.75
44.74
40.04
35.02
29.69
23.86
17.36
10.28
3.04
-3.88
-10.16
-15.87
-21.39
-27.13
-33.30
-39.67
-45.83
-51.42
-56.29
-60.39
-63.47
-65.01
-64.30
-60.77
-54.41
-45.97
-36.77
-28.26
-21.52
-16.97
-14.32
-12.88
-11.93
-11.04
-10.20
-9.74
-9.99
-11.11
-12.84
-14.66
-16.02
-16.66
-16.64
-16.17
-15.29
-13.71
-10.92
-6.39
0.21
8.89
19.42
31.23
43.42
54.68
63.51
68.42
68.53
63.98
55.97
46.46
37.49
30.69
26.95
26.47
28.87
33.39
39.04
44.74
49.54
52.86
54.57
54.79
53.76
51.54
47.96
42.76
35.90
27.82
19.39
11.57
5.08
0.04
-3.79
-6.78
-9.09
-10.65
-11.30
-11.16
-10.77
-10.91
-12.15
-14.33
-16.74
-18.53
-19.31
-19.37
-19.49
-20.57
-23.07
-26.78
-30.77
-33.86
-35.03
-33.66
-29.43
-22.29
-12.66
-1.60
9.35
19.28
27.77
34.88
40.96
46.55
52.24
58.27
64.30
69.53
74.33
79.07
83.39
85.85
84.57
78.30
67.05
52.37
36.98
25.98
23.06
28.19
37.10
43.98
44.79
39.10
29.93
21.81
21.21
31.82
52.91
80.27
109.94
140.67
173.74
210.72
233.85
227.94
188.96
127.80
60.99
1.25
-45.32
-77.80
-98.62
-111.67
-117.93
-117.51
-110.25
-99.58
-89.19
-81.75
-78.37
-78.93
-82.54
-85.86
-85.78
-81.17
-73.65
-65.91
-60.72
-59.46
-62.04
-66.76
-69.29
-64.97
-51.07
-28.35
-0.59
26.61
47.63
58.22
56.56
44.18
24.55
1.74
-20.66
-39.70
-53.10
-59.20
-57.40
-48.48
-34.62
-19.33
-6.81
-0.71
-2.84
-12.52
-26.94
-42.40
-55.66
-64.88
-69.81
-71.33
-70.75
-69.05
-66.49
-62.68
-56.90
-48.42
-36.91
-22.42
-5.32
13.78
33.99
54.01
72.16
86.47
95.28
97.65
93.81
85.03
73.20
60.26
47.66
36.17
26.02
17.21
9.76
3.88
-0.15
-2.19
-2.28
-0.66
2.25
5.97
9.96
13.52
15.90
16.40
14.81
11.70
8.35
6.19
6.00
7.37
8.80
8.53
5.68
0.72
-4.75
-9.04
-11.38
-12.29
-13.17
-15.27
-18.95
-23.56
-27.83
-30.71
-31.82
-31.48
-30.46
-29.50
-28.97
-28.82
-28.69
-27.98
-26.17
-23.00
-18.79
-14.56
-11.55
-10.80
-12.44
-15.61
-18.77
-20.55
-20.39
-18.70
-16.51
-14.75
-13.83
-13.53
-13.36
-13.00
-12.55
-12.34
-12.55
-12.94
-12.92
-11.87
-9.49
-5.94
-1.77
2.39
6.12
9.36
12.34
15.41
18.80
22.40
25.74
28.21
29.34
29.01
27.52
25.30
22.77
20.07
17.15
14.09
11.24
9.28
8.96
10.66
14.13
18.42
22.28
24.62
24.90
23.28
20.38
17.01
13.77
10.87
8.16
5.31
2.10
-1.40
-4.91
-8.03
-10.54
-12.53
-14.39
-16.54
-19.22
-22.38
-25.61
-28.40
-30.34
-31.34
-31.66
-31.88
-32.54
-33.99
-36.26
-39.03
-41.89
-44.48
-46.55
-47.95
-48.48
-47.89
-46.00
-42.86
-38.81
-34.38
-30.04
-25.92
-21.84
-17.59
-13.26
-9.27
-6.08
-3.71
-1.58
1.17
5.10
10.05
15.19
19.53
22.57
24.48
25.97
27.59
29.45
31.12
31.96
31.62
30.06
27.45
23.90
19.24
13.34
6.35
-1.21
-8.44
-14.57
-19.13
-22.09
-23.69
-24.18
-23.71
-22.42
-20.65
-18.89
-17.58
-16.80
-16.14
-14.93
-12.59
-9.14
-5.16
-1.54
1.16
3.02
4.64
6.77
9.53
12.41
14.52
15.14
14.16
12.11
9.69
7.54
6.01
5.19
5.24
6.27
8.30
11.11
14.16
16.72
18.20
18.36
17.35
15.59
13.60
11.94
11.19
11.89
14.45
19.01
25.29
32.68
40.31
47.27
52.82
56.54
58.33
58.46
57.47
55.85
53.88
51.59
48.74
45.14
40.88
36.26
31.65
27.23
22.80
17.92
12.22
5.78
-0.78
-6.53
-10.69
-13.02
-14.11
-15.13
-17.41
-21.88
-28.66
-37.06
-45.69
-53.08
-58.04
-59.95
-58.81
-54.92
-48.79
-40.91
-31.80
-22.04
-12.27
-3.14
4.90
11.57
16.93
21.26
24.92
28.15
30.99
33.11
34.08
33.54
31.48
28.34
24.84
21.70
19.27
17.47
15.95
14.41
12.74
10.95
8.99
6.53
3.07
-1.63
-7.25
-12.83
-17.14
-19.26
-18.97
-16.85
-13.83
-10.78
-8.02
-5.41
-2.59
0.70
4.41
8.22
11.79
15.07
18.37
22.31
27.58
34.62
43.41
53.43
63.84
73.72
82.43
89.68
95.61
100.60
105.05
109.23
113.09
116.32
118.34
118.58
116.66
112.64
107.13
101.14
95.77
91.85
89.60
88.65
88.22
87.44
85.71
82.76
78.54
73.06
66.16
57.53
46.83
33.83
18.58
1.39
-17.28
-36.93
-57.17
-77.63
-98.03
-118.09
-137.58
-156.37
-174.42
-191.79
-208.51
-224.44
-239.22
-252.35
-263.49
-272.73
-280.69
-288.17
-295.53
-302.22
-306.68
-307.08
-302.07
-291.67
-277.35
-261.47
-246.13
-232.44
-220.27
-208.80
-197.22
-184.81
-170.76
-153.89
-132.83
-106.75
-76.16
-43.38
-11.94
14.55
34.21
47.73
57.97
68.32
81.15
96.78
113.57
128.94
139.94
144.85
143.43
136.48
124.92
109.49
91.01
70.89
51.26
33.60
19.53
10.44
6.88
8.09
12.16
16.91
20.52
21.87
18.95
11.20
-0.12
-12.69
-24.50
-34.85
-43.94
-52.54
-61.35
-72.56
-86.20
-99.73
-109.21
-111.72
-107.01
-96.96
-84.63
-59.67
-19.65
29.45
77.19
116.10
144.16
162.41
173.60
181.14
188.29
194.76
199.01
199.21
193.98
184.88
172.71
159.73
148.52
140.45
133.22
123.92
111.02
95.19
78.51
62.81
49.27
37.94
27.90
17.15
5.19
-7.08
-18.17
-27.31
-35.19
-42.91
-51.10
-59.37
-66.90
-72.39
-74.82
-73.91
-70.27
-65.19
-59.71
-54.19
-48.35
-41.74
-33.75
-24.03
-12.59
0.09
13.16
25.66
36.76
45.76
52.28
56.30
58.02
57.85
56.26
53.59
50.09
45.92
41.22
36.11
30.74
25.21
19.70
14.39
9.54
5.29
1.58
-1.93
-5.80
-10.46
-16.02
-22.04
-27.62
-31.68
-33.26
-31.78
-27.12
-19.59
-9.84
1.14
12.21
22.22
30.38
36.45
40.85
44.39
47.83
51.53
55.25
58.32
59.95
59.64
57.34
53.49
48.89
44.38
40.71
38.31
37.22
37.21
37.87
38.85
39.97
41.31
43.06
45.36
48.15
51.11
53.60
54.87
54.28
51.62
47.25
42.08
37.20
33.49
31.23
30.02
28.91
26.78
22.77
16.53
8.32
-1.09
-10.71
-19.68
-27.64
-34.90
-42.31
-50.96
-61.51
-73.89
-87.17
-99.85
-110.34
-117.32
-120.18
-119.13
-115.27
-110.34
-106.01
-103.09
-100.80
-96.97
-89.02
-75.52
-57.39
-37.94
-21.47
-11.21
-7.71
-8.51
-9.41
-6.53
1.96
15.18
30.22
43.64
52.99
57.45
57.76
55.26
50.99
45.24
37.82
28.62
18.30
8.41
0.87
-2.93
-2.82
0.05
3.76
6.52
7.42
6.68
5.33
4.59
5.24
7.17
9.26
9.75
7.03
0.41
-9.21
-19.53
-27.68
-31.51
-30.63
-26.53
-21.89
-19.19
-19.58
-22.31
-25.27
-26.16
-23.54
-17.52
-9.59
-1.86
3.86
6.74
7.12
6.04
4.68
3.66
2.98
2.32
1.43
0.52
0.14
0.84
2.70
5.11
7.04
7.46
5.82
2.33
-2.18
-6.64
-10.06
-11.99
-12.53
-12.29
-12.18
-13.01
-15.15
-18.24
-21.22
-22.64
-21.15
-15.95
-7.03
4.95
18.88
33.59
47.97
61.20
72.73
82.41
90.45
97.29
103.23
108.14
111.35
111.93
109.19
103.08
94.21
83.56
71.98
59.91
47.35
34.25
20.73
7.29
-5.45
-17.08
-27.68
-37.88
-48.54
-60.34
-73.52
-87.86
-102.93
-118.42
-134.19
-150.05
-165.30
-178.52
-187.75
-191.25
-188.35
-179.99
-168.40
-156.17
-144.90
-134.55
-123.49
-109.55
-91.29
-68.97
-44.45
-20.31
1.42
20.12
36.70
52.84
70.15
89.65
111.67
135.93
161.28
185.24
204.10
213.74
211.58
198.13
177.53
156.11
139.58
130.44
127.08
125.02
119.57
108.19
91.40
71.88
52.71
35.95
22.36
12.01
4.88
1.03
0.16
1.05
1.62
-0.37
-6.18
-15.14
-24.86
-32.28
-35.20
-33.42
-28.73
-23.89
-21.14
-21.17
-23.11
-25.39
-26.81
-27.16
-26.99
-26.89
-26.91
-26.45
-24.72
-21.46
-17.29
-13.46
-11.25
-11.34
-13.50
-16.80
-20.16
-22.78
-24.36
-25.03
-24.99
-24.40
-23.25
-21.38
-18.59
-14.70
-9.61
-3.46
3.33
10.05
15.86
20.00
22.11
22.28
20.91
18.58
15.77
12.78
9.83
7.04
4.58
2.57
1.00
-0.35
-1.85
-3.90
-6.69
-10.20
-14.13
-18.08
-21.65
-24.63
-27.04
-29.18
-31.40
-34.01
-37.13
-40.64
-44.21
-47.38
-49.66
-50.55
-49.67
-46.82
-42.09
-35.92
-29.00
-22.12
-15.91
-10.76
-6.76
-3.89
-2.08
-1.34
-1.61
-2.74
-4.42
-6.26
-7.91
-9.19
-10.06
-10.62
-11.01
-11.34
-11.74
-12.27
-12.99
-13.91
-14.97
-16.08
-17.15
-18.15
-19.12
-20.12
-21.18
-22.30
-23.52
-24.87
-26.49
-28.45
-30.65
-32.73
-34.05
-33.88
-31.69
-27.39
-21.42
-14.62
-8.04
-2.51
1.45
3.80
4.80
4.82
4.16
3.02
1.54
-0.14
-1.82
-3.28
-4.37
-5.12
-5.80
-6.80
-8.56
-11.32
-15.07
-19.56
-24.45
-29.43
-34.36
-39.14
-43.61
-47.55
-50.69
-52.91
-54.36
-55.38
-56.11
-56.25
-54.79
-50.35
-41.80
-28.85
-12.33
6.14
24.67
41.79
56.63
68.92
78.66
85.97
91.11
94.53
96.92
99.04
101.41
104.13
106.92
109.33
110.99
111.81
111.91
111.55
110.95
110.30
109.68
109.07
108.17
106.47
103.24
97.82
89.85
79.47
67.18
53.67
39.47
24.81
9.76
-5.52
-20.53
-34.44
-46.23
-55.08
-60.65
-63.16
-63.27
-61.84
-59.64
-57.28
-55.12
-53.35
-52.03
-51.16
-50.66
-50.39
-50.16
-49.75
-48.95
-47.58
-45.55
-42.95
-40.04
-37.10
-34.45
-32.32
-30.78
-29.86
-29.53
-29.74
-30.41
-31.38
-32.50
-33.60
-34.67
-35.80
-37.20
-39.05
-41.34
-43.90
-46.35
-48.25
-49.16
-48.73
-46.71
-43.02
-37.88
-31.77
-25.45
-19.72
-15.16
-11.94
-9.84
-8.44
-7.40
-6.68
-6.40
-6.65
-7.28
-7.89
-8.15
-7.97
-7.70
-7.85
-8.73
-10.15
-11.48
-12.05
-11.55
-10.37
-9.36
-9.43
-11.06
-14.13
-18.09
-22.34
-26.56
-30.79
-35.20
-39.78
-44.14
-47.55
-49.02
-47.83
-43.71
-37.02
-28.55
-19.27
-10.03
-1.30
6.79
14.55
22.28
30.10
37.80
44.95
51.10
55.92
59.18
60.84
61.19
60.51
58.94
56.46
52.98
48.41
42.67
35.65
27.32
18.44
9.72
1.42
-6.74
-15.28
-24.60
-34.89
-46.28
-58.87
-71.28
-82.05
-90.15
-94.95
-95.72
-91.42
-81.28
-65.45
-45.16
-20.28
8.55
39.29
68.78
94.18
114.07
128.56
138.67
146.08
155.66
171.35
194.16
221.63
249.68
274.70
294.56
308.59
300.73
263.42
202.11
133.42
73.53
30.29
3.93
-9.32
-14.91
-17.92
-19.01
-17.65
-13.75
-8.75
-4.88
-4.23
-8.53
-18.08
-33.95
-53.53
-73.70
-92.59
-109.98
-125.94
-139.45
-145.86
-143.28
-132.43
-115.34
-96.06
-79.32
-68.47
-63.61
-61.77
-59.15
-54.92
-49.10
-42.36
-35.17
-27.15
-17.53
-6.22
5.17
13.45
15.02
8.66
-3.37
-15.98
-23.86
-24.08
-17.27
-6.79
3.36
10.33
14.37
16.69
18.82
21.37
23.61
24.05
21.77
17.15
11.78
7.73
5.95
5.81
5.26
1.98
-5.33
-16.20
-28.68
-40.30
-49.11
-54.41
-56.45
-55.88
-53.09
-48.05
-40.66
-31.32
-21.13
-11.46
-3.25
3.61
10.15
17.50
25.89
34.14
40.11
41.73
38.16
30.25
20.21
10.58
3.22
-1.19
-3.02
-3.13
-2.32
-1.05
0.55
2.33
4.02
5.15
5.24
4.03
1.63
-1.43
-4.51
-7.06
-8.86
-9.96
-10.62
-11.06
-11.43
-11.72
-11.94
-12.03
-11.96
-11.70
-11.24
-10.63
-10.01
-9.57
-9.49
-9.89
-10.79
-12.13
-13.81
-15.61
-17.21
-18.12
-17.82
-15.94
-12.47
-7.78
-2.53
2.64
7.28
11.24
14.54
17.21
19.24
20.54
21.04
20.79
19.98
18.89
17.78
16.86
16.25
15.93
15.75
15.41
14.60
13.13
11.01
8.53
6.09
4.00
2.27
0.58
-1.63
-4.83
-9.24
-14.70
-20.77
-26.86
-32.32
-36.55
-39.02
-39.48
-38.07
-35.36
-32.17
-29.24
-26.84
-24.72
-22.33
-19.37
-16.18
-13.79
-13.41
-15.85
-20.99
-27.81
-34.84
-40.77
-44.88
-47.17
-48.18
-48.71
-49.57
-51.21
-53.58
-55.90
-56.60
-53.71
-45.54
-31.63
-13.32
6.31
23.42
34.78
39.02
37.07
31.54
25.48
21.07
18.90
18.26
17.94
17.11
15.79
14.62
14.37
15.45
17.72
20.68
23.61
25.78
26.49
25.08
21.10
14.50
5.80
-3.99
-13.54
-21.65
-27.61
-31.36
-33.30
-34.08
-34.29
-34.27
-34.00
-33.11
-30.84
-26.09
-17.60
-4.38
13.57
34.84
56.53
75.04
87.31
91.98
89.94
83.97
77.48
73.23
72.48
74.95
79.43
84.51
89.18
92.92
95.43
96.27
94.79
90.28
82.34
71.34
58.45
45.38
33.79
24.71
18.39
14.55
12.88
13.35
16.07
20.88
26.90
32.44
35.56
34.74
29.52
20.71
9.99
-0.74
-10.04
-17.29
-22.75
-27.14
-31.12
-34.79
-37.41
-37.66
-34.19
-26.45
-15.25
-2.71
8.34
15.41
17.40
15.10
10.89
7.71
7.57
10.71
15.48
19.32
20.16
17.35
11.66
4.37
-3.65
-12.26
-21.44
-30.50
-37.63
-40.67
-38.30
-31.08
-21.41
-12.50
-6.77
-4.97
-6.13
-8.43
-10.11
-10.12
-8.19
-4.69
-0.37
3.78
6.77
7.95
7.35
5.71
4.34
4.53
7.04
11.83
18.18
25.00
31.28
36.32
39.82
41.88
42.76
42.76
42.17
41.18
39.94
38.59
37.24
35.91
34.45
32.56
29.87
26.15
21.47
16.18
10.86
6.04
2.06
-1.07
-3.63
-6.05
-8.70
-11.88
-15.66
-19.97
-24.57
-29.15
-33.40
-37.13
-40.39
-43.46
-46.76
-50.57
-54.91
-59.42
-63.39
-66.00
-66.53
-64.59
-60.19
-53.81
-46.18
-38.16
-30.50
-23.68
-17.85
-12.96
-8.84
-5.34
-2.41
-0.01
1.86
3.26
4.25
4.88
5.17
5.13
4.80
4.29
3.75
3.34
3.16
3.15
3.17
2.99
2.37
1.17
-0.60
-2.80
-5.19
-7.53
-9.71
-11.78
-13.90
-16.24
-18.91
-21.86
-25.01
-28.23
-31.50
-34.76
-37.87
-40.44
-41.93
-41.69
-39.28
-34.61
-28.07
-20.39
-12.38
-4.75
2.05
7.87
12.73
16.65
19.68
21.82
23.09
23.62
23.61
23.33
22.99
22.69
22.40
22.06
21.59
21.03
20.42
19.85
19.34
18.88
18.43
17.92
17.29
16.43
15.18
13.39
11.00
8.10
4.92
1.80
-1.04
-3.50
-5.72
-7.92
-10.36
-13.20
-16.51
-20.20
-24.00
-27.49
-30.03
-31.02
-29.97
-26.81
-21.82
-15.61
-8.88
-2.31
3.63
8.63
12.54
15.34
17.12
18.03
18.26
17.96
17.27
16.31
15.19
14.07
13.09
12.31
11.65
10.90
9.89
8.51
6.85
5.11
3.53
2.22
1.14
0.16
-0.92
-2.27
-3.98
-6.08
-8.52
-11.24
-14.11
-16.98
-19.73
-22.25
-24.56
-26.79
-29.10
-31.59
-34.19
-36.55
-38.07
-38.09
-36.08
-31.86
-25.75
-18.44
-10.82
-3.72
2.27
6.88
10.13
12.23
13.40
13.87
13.81
13.35
12.57
11.52
10.27
8.90
7.57
6.43
5.66
5.35
5.46
5.79
6.05
5.97
5.38
4.27
2.79
1.10
-0.63
-2.32
-3.91
-5.41
-6.85
-8.29
-9.76
-11.33
-13.06
-15.03
-17.32
-19.96
-22.97
-26.25
-29.67
-33.05
-36.12
-38.57
-40.00
-39.89
-37.78
-33.38
-26.80
-18.61
-9.76
-1.24
6.16
12.06
16.46
19.61
21.79
23.23
24.07
24.44
24.43
24.14
23.61
22.88
21.97
20.94
19.94
19.11
18.49
18.01
17.50
16.80
15.78
14.42
12.73
10.67
8.22
5.36
2.19
-1.10
-4.24
-7.03
-9.37
-11.31
-12.98
-14.52
-16.01
-17.49
-19.07
-20.95
-23.35
-26.38
-29.78
-32.94
-34.92
-34.81
-32.05
-26.70
-19.45
-11.36
-3.50
3.32
8.73
12.71
15.46
17.23
18.23
18.68
18.75
18.60
18.31
17.90
17.32
16.58
15.74
14.93
14.28
13.85
13.61
13.46
13.29
12.99
12.53
11.92
11.15
10.14
8.78
6.93
4.57
1.75
-1.30
-4.31
-7.06
-9.41
-11.41
-13.22
-15.08
-17.22
-19.82
-22.89
-26.26
-29.56
-32.26
-33.77
-33.58
-31.37
-27.12
-21.11
-13.83
-5.96
1.76
8.69
14.33
18.43
21.03
22.37
22.83
22.75
22.37
21.74
20.85
19.74
18.52
17.40
16.55
16.03
15.70
15.34
14.77
13.90
12.82
11.64
10.47
9.31
8.04
6.54
4.73
2.61
0.23
-2.29
-4.86
-7.38
-9.77
-12.00
-14.10
-16.11
-18.11
-20.19
-22.42
-24.81
-27.21
-29.26
-30.40
-29.98
-27.50
-22.77
-16.14
-8.37
-0.46
6.68
12.44
16.67
19.51
21.25
22.09
22.12
21.33
19.76
17.59
15.17
12.91
11.16
10.07
9.55
9.33
9.15
8.83
8.34
7.82
7.41
7.20
7.11
6.90
6.29
5.04
3.11
0.67
-2.00
-4.55
-6.81
-8.77
-10.53
-12.29
-14.20
-16.34
-18.78
-21.54
-24.56
-27.54
-29.97
-31.10
-30.16
-26.74
-20.91
-13.32
-4.95
3.19
10.39
16.26
20.75
23.91
25.83
26.60
26.34
25.26
23.64
21.81
19.99
18.34
16.90
15.68
14.65
13.84
13.20
12.66
12.08
11.36
10.45
9.40
8.24
6.96
5.45
3.57
1.22
-1.51
-4.35
-6.96
-9.11
-10.84
-12.39
-14.15
-16.44
-19.42
-23.07
-27.21
-31.50
-35.43
-38.32
-39.39
-38.04
-34.05
-27.71
-19.85
-11.49
-3.57
3.35
9.09
13.75
17.47
20.31
22.21
23.11
23.04
22.26
21.15
20.11
19.43
19.18
19.22
19.32
19.27
18.98
18.47
17.83
17.09
16.23
15.15
13.73
11.93
9.76
7.33
4.80
2.29
-0.08
-2.30
-4.41
-6.50
-8.70
-11.09
-13.71
-16.55
-19.62
-22.93
-26.53
-30.32
-34.01
-37.05
-38.75
-38.47
-35.86
-30.95
-24.12
-16.00
-7.29
1.32
9.20
15.84
20.89
24.19
25.84
26.12
25.45
24.25
22.90
21.67
20.76
20.25
20.12
20.31
20.67
21.04
21.30
21.37
21.16
20.60
19.60
18.10
16.15
13.92
11.64
9.54
7.72
6.07
4.35
2.32
-0.18
-3.10
-6.23
-9.28
-12.05
-14.45
-16.56
-18.60
-20.83
-23.52
-26.82
-30.63
-34.54
-37.80
-39.52
-38.88
-35.46
-29.40
-21.41
-12.49
-3.70
4.15
10.57
15.42
18.74
20.65
21.29
20.87
19.75
18.32
17.04
16.20
15.89
15.97
16.17
16.30
16.31
16.34
16.52
16.94
17.41
17.63
17.28
16.15
14.38
12.27
10.20
8.39
6.80
5.12
3.00
0.26
-3.03
-6.48
-9.62
-12.14
-14.03
-15.56
-17.12
-19.04
-21.44
-24.31
-27.56
-31.05
-34.51
-37.42
-38.98
-38.34
-34.87
-28.53
-19.98
-10.40
-1.08
6.97
13.26
17.78
20.82
22.66
23.52
23.58
23.07
22.33
21.69
21.40
21.48
21.73
21.88
21.72
21.22
20.58
20.01
19.68
19.52
19.31
18.76
17.64
15.90
13.65
11.14
8.61
6.25
4.09
2.03
-0.10
-2.44
-4.99
-7.60
-10.06
-12.26
-14.21
-16.15
-18.41
-21.27
-24.85
-28.94
-33.04
-36.46
-38.44
-38.36
-35.91
-31.17
-24.61
-16.94
-8.95
-1.37
5.30
10.75
14.86
17.68
19.35
20.09
20.18
19.90
19.52
19.23
19.13
19.19
19.35
19.52
19.63
19.69
19.73
19.78
19.83
19.79
19.50
18.83
17.70
16.09
14.12
11.95
9.73
7.63
5.75
4.12
2.69
1.29
-0.30
-2.25
-4.63
-7.31
-10.03
-12.53
-14.66
-16.45
-18.12
-20.01
-22.41
-25.45
-29.07
-32.92
-36.46
-38.95
-39.65
-37.99
-33.75
-27.21
-19.07
-10.32
-1.93
5.36
11.16
15.39
18.22
19.91
20.71
20.84
20.52
20.04
19.65
19.54
19.75
20.14
20.51
20.66
20.50
20.08
19.53
18.98
18.53
18.18
17.87
17.47
16.83
15.78
14.24
12.26
10.06
7.91
6.00
4.39
2.87
1.18
-0.88
-3.35
-6.08
-8.82
-11.38
-13.63
-15.60
-17.41
-19.25
-21.35
-23.90
-27.01
-30.54
-34.09
-37.01
-38.56
-38.14
-35.50
-30.78
-24.43
-17.12
-9.49
-2.14
4.46
9.91
13.96
16.54
17.78
17.97
17.50
16.73
15.92
15.22
14.69
14.33
14.17
14.23
14.45
14.75
15.02
15.17
15.19
15.11
14.97
14.69
14.13
13.11
11.55
9.52
7.23
4.94
2.80
0.82
-1.14
-3.27
-5.66
-8.27
-10.99
-13.60
-15.96
-18.04
-19.96
-21.97
-24.36
-27.37
-30.94
-34.62
-37.59
-38.91
-37.84
-34.12
-28.04
-20.39
-12.13
-4.15
2.87
8.53
12.65
15.24
16.50
16.77
16.49
16.03
15.65
15.40
15.27
15.24
15.32
15.54
15.91
16.34
16.74
17.00
17.10
17.04
16.78
16.24
15.30
13.87
12.00
9.84
7.63
5.55
3.69
1.98
0.23
-1.72
-4.03
-6.70
-9.57
-12.41
-14.95
-17.02
-18.64
-20.08
-21.76
-24.09
-27.28
-31.15
-35.13
-38.39
-40.03
-39.36
-36.10
-30.43
-22.97
-14.61
-6.29
1.19
7.30
11.83
14.90
16.79
17.86
18.39
18.53
18.33
17.84
17.21
16.67
16.45
16.68
17.26
17.93
18.42
18.58
18.48
18.29
18.10
17.86
17.30
16.18
14.43
12.26
10.07
8.20
6.76
5.55
4.22
2.47
0.23
-2.34
-4.92
-7.32
-9.44
-11.41
-13.38
-15.47
-17.76
-20.31
-23.23
-26.60
-30.35
-34.09
-37.10
-38.44
-37.28
-33.26
-26.66
-18.33
-9.45
-1.16
5.77
10.99
14.58
16.81
18.03
18.50
18.43
17.97
17.28
16.56
15.95
15.53
15.30
15.21
15.17
15.18
15.24
15.40
15.62
15.77
15.62
14.96
13.72
11.97
9.98
8.03
6.28
4.68
3.02
1.02
-1.43
-4.25
-7.15
-9.81
-12.04
-13.85
-15.46
-17.14
-19.08
-21.37
-24.02
-26.97
-30.10
-33.07
-35.36
-36.23
-35.07
-31.59
-26.05
-19.25
-12.17
-5.73
-0.53
3.23
5.57
6.66
6.66
5.78
4.24
2.30
0.21
-1.85
-3.76
-5.45
-6.81
-7.72
-8.06
-7.77
-6.83
-5.36
-3.50
-1.51
0.36
1.78
2.51
2.44
1.63
0.28
-1.28
-2.78
-4.07
-5.13
-6.09
-7.11
-8.24
-9.45
-10.60
-11.58
-12.40
-13.27
-14.51
-16.33
-18.64
-20.98
-22.56
-22.58
-20.46
-16.08
-9.79
-2.33
5.47
12.85
19.31
24.58
28.59
31.32
32.79
33.03
32.17
30.51
28.47
26.47
24.83
23.65
22.85
22.26
21.75
21.27
20.85
20.46
20.06
19.50
18.68
17.58
16.20
14.59
12.75
10.64
8.22
5.46
2.47
-0.63
-3.67
-6.52
-9.11
-11.47
-13.74
-16.20
-19.16
-22.86
-27.25
-31.88
-35.88
-38.26
-38.16
-35.23
-29.74
-22.51
-14.59
-6.93
-0.12
5.60
10.25
13.95
16.77
18.76
19.93
20.38
20.24
19.69
18.95
18.21
17.63
17.29
17.17
17.18
17.21
17.14
16.91
16.46
15.80
14.90
13.74
12.35
10.79
9.17
7.51
5.77
3.82
1.59
-0.96
-3.67
-6.38
-8.98
-11.47
-14.00
-16.77
-19.91
-23.45
-27.28
-31.09
-34.39
-36.53
-36.81
-34.74
-30.21
-23.59
-15.67
-7.46
0.20
6.71
11.82
15.51
17.89
19.12
19.40
19.00
18.28
17.63
17.29
17.34
17.64
18.01
18.29
18.45
18.57
18.77
19.05
19.28
19.20
18.59
17.38
15.67
13.69
11.64
9.60
7.52
5.30
2.93
0.49
-1.87
-3.99
-5.85
-7.51
-9.11
-10.81
-12.72
-14.93
-17.56
-20.65
-24.10
-27.54
-30.32
-31.64
-30.80
-27.44
-21.76
-14.42
-6.42
1.27
7.85
12.93
16.53
18.91
20.42
21.32
21.71
21.58
20.90
19.77
18.46
17.34
16.79
16.95
17.78
18.99
20.24
21.23
21.75
21.67
20.95
19.59
17.63
15.20
12.51
9.75
7.12
4.72
2.59
0.69
-1.06
-2.75
-4.49
-6.38
-8.46
-10.67
-12.89
-14.95
-16.83
-18.66
-20.72
-23.26
-26.29
-29.43
-31.95
-33.02
-31.92
-28.38
-22.67
-15.53
-7.92
-0.78
5.23
9.82
13.00
14.98
16.05
16.46
16.44
16.15
15.75
15.38
15.15
15.15
15.39
15.80
16.27
16.65
16.82
16.75
16.46
16.06
15.59
15.02
14.19
12.92
11.13
8.90
6.43
3.96
1.63
-0.50
-2.46
-4.32
-6.08
-7.74
-9.28
-10.79
-12.36
-14.20
-16.41
-19.04
-21.93
-24.72
-26.88
-27.78
-26.92
-24.13
-19.63
-14.03
-8.12
-2.55
2.26
6.16
9.20
11.44
12.92
13.72
13.97
13.93
13.89
14.06
14.47
15.01
15.46
15.70
15.67
15.43
15.11
14.80
14.58
14.45
14.35
14.09
13.50
12.41
10.77
8.72
6.50
4.36
2.46
0.77
-0.85
-2.54
-4.36
-6.22
-8.03
-9.75
-11.46
-13.27
-15.27
-17.43
-19.63
-21.80
-23.91
-25.98
-27.90
-29.33
-29.73
-28.55
-25.58
-21.03
-15.53
-9.89
-4.73
-0.33
3.34
6.38
8.81
10.54
11.51
11.77
11.62
11.41
11.41
11.68
12.08
12.43
12.62
12.67
12.65
12.60
12.51
12.32
12.00
11.61
11.25
10.96
10.69
10.32
9.69
8.72
7.38
5.79
4.08
2.41
0.91
-0.38
-1.52
-2.63
-3.88
-5.38
-7.12
-8.97
-10.75
-12.36
-13.76
-15.06
-16.36
-17.77
-19.38
-21.20
-23.19
-25.22
-26.97
-27.96
-27.67
-25.75
-22.16
-17.29
-11.82
-6.52
-2.01
1.38
3.58
4.74
5.15
5.09
4.86
4.72
4.88
5.41
6.30
7.39
8.48
9.36
9.86
9.91
9.58
9.04
8.54
8.28
8.31
8.49
8.53
8.16
7.20
5.77
4.15
2.65
1.54
0.80
0.28
-0.32
-1.23
-2.54
-4.17
-5.91
-7.55
-8.92
-9.97
-10.78
-11.45
-12.15
-13.04
-14.26
-15.86
-17.74
-19.54
-20.77
-20.89
-19.51
-16.65
-12.67
-8.16
-3.72
0.22
3.51
6.12
8.06
9.30
9.79
9.59
8.91
8.10
7.52
7.39
7.73
8.35
9.01
9.45
9.57
9.38
8.97
8.45
7.92
7.45
7.06
6.70
6.27
5.63
4.68
3.36
1.75
-0.02
-1.78
-3.43
-4.94
-6.33
-7.65
-8.95
-10.30
-11.80
-13.57
-15.66
-18.01
-20.43
-22.59
-24.24
-25.23
-25.66
-25.75
-25.75
-25.75
-25.62
-25.05
-23.72
-21.35
-17.91
-13.58
-8.73
-3.83
0.63
4.25
6.78
8.17
8.56
8.29
7.76
7.38
7.40
7.92
8.92
10.29
11.87
13.47
14.82
15.65
15.73
14.97
13.55
11.85
10.33
9.31
8.87
8.81
8.71
8.19
7.04
5.30
3.22
1.20
-0.44
-1.55
-2.19
-2.63
-3.24
-4.32
-6.00
-8.26
-10.93
-13.79
-16.69
-19.50
-22.17
-24.70
-27.04
-29.10
-30.62
-31.29
-30.74
-28.75
-25.33
-20.76
-15.56
-10.33
-5.55
-1.47
1.85
4.57
6.83
8.76
10.34
11.49
12.21
12.59
12.82
13.14
13.70
14.46
15.22
15.75
15.93
15.83
15.63
15.50
15.47
15.37
14.97
14.13
12.88
11.41
9.94
8.64
7.49
6.32
4.93
3.09
0.72
-2.08
-5.05
-7.83
-10.15
-11.93
-13.33
-14.73
-16.55
-19.02
-22.15
-25.71
-29.27
-32.37
-34.56
-35.43
-34.71
-32.28
-28.24
-22.97
-17.07
-11.18
-5.91
-1.62
1.60
3.89
5.50
6.69
7.62
8.35
8.84
9.07
9.09
9.02
9.02
9.21
9.56
9.90
9.97
9.58
8.68
7.46
6.14
4.90
3.75
2.57
1.18
-0.50
-2.43
-4.43
-6.32
-7.96
-9.34
-10.47
-11.36
-12.07
-12.68
-13.45
-14.67
-16.62
-19.30
-22.40
-25.27
-27.17
-27.49
-25.96
-22.70
-18.01
-12.35
-6.10
0.29
6.38
11.70
15.93
18.98
21.07
22.52
23.59
24.30
24.50
24.05
23.05
21.88
21.03
20.84
21.33
22.19
23.01
23.53
23.72
23.75
23.79
23.87
23.85
23.49
22.61
21.17
19.26
17.02
14.57
11.94
9.12
6.11
2.95
-0.30
-3.64
-7.15
-11.05
-15.51
-20.55
-25.97
-31.20
-35.52
-38.22
-38.83
-37.24
-33.77
-29.02
-23.80
-18.83
-14.67
-11.57
-9.51
-8.31
-7.65
-7.25
-6.91
-6.41
-5.62
-4.39
-2.67
-0.52
1.94
4.55
7.18
9.80
12.44
15.11
17.73
20.15
22.15
23.59
24.37
24.50
24.00
22.91
21.25
19.10
16.60
13.97
11.39
8.89
6.33
3.48
0.09
-3.94
-8.58
-13.57
-18.57
-23.04
-26.37
-27.91
-27.11
-23.79
-18.26
-11.35
-4.16
2.24
7.20
10.57
12.63
13.80
14.44
14.75
14.77
14.59
14.41
14.48
15.02
16.08
17.50
18.97
20.15
20.77
20.71
19.97
18.71
17.18
15.64
14.27
13.02
11.67
9.84
7.30
4.07
0.47
-3.00
-5.89
-7.97
-9.32
-10.17
-10.86
-11.78
-13.28
-15.59
-18.64
-22.04
-24.94
-26.33
-25.42
-21.91
-16.17
-9.09
-1.69
5.19
11.06
15.82
19.51
22.22
24.01
24.98
25.26
25.08
24.67
24.17
23.69
23.18
22.60
21.94
21.25
20.64
20.27
20.22
20.49
20.95
21.32
21.23
20.30
18.26
15.02
10.78
5.97
1.13
-3.21
-6.77
-9.53
-11.70
-13.68
-15.82
-18.38
-21.44
-24.86
-28.28
-31.12
-32.70
-32.39
-29.81
-25.05
-18.61
-11.32
-4.05
2.57
8.17
12.73
16.40
19.39
21.85
23.85
25.36
26.37
26.95
27.29
27.64
28.25
29.21
30.40
31.51
32.23
32.38
31.99
31.23
30.31
29.32
28.19
26.76
24.83
22.33
19.28
15.76
11.89
7.73
3.33
-1.36
-6.33
-11.59
-17.13
-22.92
-28.91
-35.07
-41.33
-47.51
-53.29
-58.13
-61.33
-62.28
-60.67
-56.62
-50.72
-43.90
-37.08
-30.95
-25.83
-21.64
-18.09
-14.87
-11.75
-8.65
-5.57
-2.52
0.52
3.55
6.50
9.25
11.61
13.49
14.86
15.85
16.69
17.59
18.64
19.83
21.00
21.98
22.62
22.80
22.46
21.58
20.24
18.52
16.55
14.42
12.17
9.82
7.43
5.07
2.83
0.72
-1.35
-3.54
-6.01
-8.84
-11.98
-15.21
-18.26
-20.78
-22.38
-22.66
-21.26
-18.08
-13.38
-7.81
-2.24
2.53
6.03
8.25
9.47
10.10
10.40
10.42
10.13
9.52
8.72
8.00
7.61
7.71
8.29
9.18
10.15
10.97
11.47
11.59
11.43
11.14
10.90
10.79
10.77
10.65
10.17
9.12
7.47
5.39
3.20
1.24
-0.27
-1.35
-2.21
-3.13
-4.32
-5.77
-7.26
-8.52
-9.38
-9.89
-10.35
-11.15
-12.59
-14.74
-17.43
-20.29
-22.89
-24.85
-25.82
-25.58
-24.06
-21.31
-17.60
-13.36
-9.09
-5.23
-2.08
0.29
1.98
3.19
4.08
4.69
4.97
4.83
4.28
3.43
2.55
1.86
1.52
1.53
1.74
1.95
2.00
1.82
1.37
0.68
-0.21
-1.30
-2.53
-3.89
-5.36
-6.96
-8.67
-10.40
-11.98
-13.18
-13.81
-13.79
-13.21
-12.33
-11.39
-10.63
-10.16
-10.05
-10.33
-11.07
-12.25
-13.71
-15.07
-15.83
-15.51
-13.79
-10.64
-6.30
-1.22
4.04
8.99
13.28
16.81
19.67
22.07
24.17
25.99
27.40
28.20
28.33
27.89
27.13
26.31
25.52
24.69
23.68
22.43
21.00
19.54
18.15
16.78
15.24
13.33
11.03
8.54
6.24
4.51
3.54
3.19
3.11
2.84
2.00
0.48
-1.63
-4.04
-6.43
-8.53
-10.21
-11.49
-12.48
-13.44
-14.62
-16.30
-18.63
-21.47
-24.44
-26.86
-28.01
-27.31
-24.58
-20.14
-14.72
-9.26
-4.60
-1.25
0.82
2.00
2.87
3.89
5.23
6.79
8.28
9.48
10.30
10.77
10.92
10.73
10.14
9.11
7.78
6.42
5.34
4.75
4.61
4.73
4.82
4.67
4.20
3.45
2.52
1.50
0.47
-0.52
-1.44
-2.34
-3.27
-4.32
-5.54
-6.89
-8.34
-9.79
-11.21
-12.58
-13.92
-15.25
-16.62
-18.13
-19.92
-22.06
-24.45
-26.73
-28.37
-28.84
-27.85
-25.47
-22.10
-18.24
-14.32
-10.54
-6.99
-3.63
-0.46
2.49
5.21
7.73
10.06
12.18
13.95
15.20
15.82
15.85
15.54
15.31
15.57
16.59
18.42
20.87
23.58
26.13
28.10
29.14
29.05
27.77
25.37
22.12
18.30
14.19
9.98
5.82
1.81
-1.92
-5.24
-8.06
-10.34
-12.16
-13.63
-14.86
-15.92
-16.89
-17.89
-19.05
-20.46
-22.06
-23.61
-24.73
-25.02
-24.22
-22.30
-19.48
-16.17
-12.88
-10.06
-8.04
-6.87
-6.29
-5.90
-5.21
-3.94
-2.06
0.14
2.27
3.98
5.12
5.77
6.15
6.46
6.79
7.12
7.41
7.69
8.06
8.65
9.49
10.45
11.26
11.61
11.24
10.07
8.25
6.02
3.63
1.29
-0.94
-3.07
-5.23
-7.53
-10.07
-12.92
-16.03
-19.20
-22.11
-24.33
-25.41
-25.05
-23.15
-19.82
-15.37
-10.25
-4.96
-0.01
4.16
7.25
9.18
10.06
10.16
9.79
9.17
8.44
7.64
6.84
6.12
5.60
5.33
5.33
5.51
5.75
5.96
6.05
5.96
5.72
5.39
5.08
4.86
4.74
4.64
4.46
4.09
3.55
2.88
2.10
1.13
-0.19
-1.97
-4.26
-6.93
-9.77
-12.51
-14.87
-16.56
-17.30
-16.89
-15.28
-12.69
-9.59
-6.49
-3.80
-1.70
-0.07
1.29
2.54
3.67
4.51
4.83
4.47
3.43
1.84
-0.01
-1.76
-3.03
-3.53
-3.10
-1.82
0.04
2.13
4.16
6.01
7.69
9.23
10.53
11.33
11.23
9.92
7.32
3.64
-0.71
-5.24
-9.49
-13.16
-16.06
-18.16
-19.55
-20.42
-20.97
-21.29
-21.28
-20.66
-19.11
-16.42
-12.64
-8.08
-3.22
1.45
5.57
8.96
11.59
13.51
14.81
15.62
16.06
16.24
16.19
15.90
15.34
14.57
13.76
13.15
12.89
12.96
13.10
12.99
12.42
11.42
10.20
8.98
7.79
6.49
4.84
2.76
0.42
-1.84
-3.72
-5.13
-6.25
-7.36
-8.67
-10.26
-12.08
-14.01
-15.99
-17.99
-19.90
-21.46
-22.31
-22.02
-20.32
-17.18
-12.88
-7.89
-2.76
2.04
6.18
9.52
12.11
14.06
15.53
16.62
17.40
17.91
18.20
18.33
18.40
18.46
18.55
18.66
18.75
18.75
18.61
18.25
17.63
16.73
15.55
14.16
12.64
11.02
9.35
7.59
5.70
3.61
1.32
-1.13
-3.59
-5.90
-7.88
-9.49
-10.80
-12.06
-13.55
-15.45
-17.77
-20.21
-22.27
-23.38
-23.04
-21.00
-17.28
-12.26
-6.55
-0.88
4.09
7.95
10.62
12.30
13.34
14.01
14.43
14.53
14.20
13.40
12.33
11.32
10.76
10.85
11.56
12.61
13.66
14.39
14.67
14.53
14.07
13.39
12.54
11.53
10.36
9.02
7.56
6.00
4.34
2.59
0.73
-1.27
-3.44
-5.79
-8.26
-10.73
-12.98
-14.86
-16.39
-17.73
-19.15
-20.82
-22.55
-23.85
-24.03
-22.58
-19.36
-14.69
-9.23
-3.70
1.37
5.67
9.09
11.61
13.26
14.14
14.42
14.34
14.17
14.06
14.09
14.24
14.49
14.80
15.15
15.47
15.66
15.64
15.43
15.11
14.77
14.43
14.03
13.43
12.57
11.47
10.23
8.98
7.77
6.56
5.30
3.92
2.47
1.02
-0.36
-1.67
-2.95
-4.25
-5.59
-6.99
-8.45
-9.98
-11.55
-13.12
-14.66
-16.11
-17.54
-19.11
-21.04
-23.44
-26.22
-28.96
-31.02
-31.72
-30.55
-27.39
-22.56
-16.69
-10.53
-4.74
0.25
4.26
7.33
9.57
11.16
12.25
12.97
13.41
13.65
13.76
13.85
14.06
14.47
15.14
16.01
16.95
17.78
18.38
18.65
18.58
18.17
17.42
16.34
15.02
13.59
12.22
11.03
10.05
9.15
8.16
6.92
5.38
3.64
1.82
0.08
-1.45
-2.76
-3.83
-4.71
-5.50
-6.31
-7.30
-8.55
-10.08
-11.82
-13.61
-15.32
-16.90
-18.39
-19.92
-21.60
-23.47
-25.45
-27.29
-28.59
-28.86
-27.65
-24.75
-20.27
-14.66
-8.65
-3.04
1.56
4.86
6.89
7.94
8.37
8.46
8.40
8.28
8.18
8.20
8.44
8.95
9.67
10.50
11.25
11.81
12.09
12.09
11.86
11.47
11.01
10.56
10.16
9.77
9.24
8.41
7.17
5.54
3.71
1.95
0.49
-0.59
-1.37
-2.00
-2.69
-3.57
-4.73
-6.18
-7.91
-9.84
-11.83
-13.74
-15.51
-17.20
-18.95
-20.92
-23.15
-25.46
-27.49
-28.77
-28.85
-27.49
-24.66
-20.62
-15.74
-10.49
-5.30
-0.49
3.66
6.97
9.30
10.63
11.03
10.75
10.11
9.46
9.07
9.05
9.37
9.92
10.54
11.09
11.46
11.60
11.54
11.41
11.28
11.18
11.04
10.72
10.15
9.32
8.34
7.29
6.24
5.15
3.91
2.46
0.80
-1.06
-3.11
-5.39
-7.91
-10.60
-13.22
-15.51
-17.30
-18.68
-19.94
-21.50
-23.69
-26.57
-29.92
-33.21
-35.73
-36.77
-35.81
-32.60
-27.34
-20.64
-13.37
-6.48
-0.68
3.64
6.53
8.23
9.16
9.66
10.00
10.36
10.86
11.53
12.36
13.24
14.04
14.66
15.09
15.38
15.63
15.92
16.25
16.59
16.83
16.81
16.36
15.34
13.64
11.33
8.64
5.90
3.49
1.61
0.28
-0.74
-1.76
-3.07
-4.82
-6.95
-9.30
-11.68
-13.95
-16.09
-18.14
-20.26
-22.62
-25.41
-28.69
-32.33
-35.89
-38.73
-40.10
-39.37
-36.27
-30.95
-24.01
-16.31
-8.73
-1.96
3.59
7.81
10.83
12.85
14.10
14.80
15.18
15.44
15.77
16.28
16.96
17.71
18.39
18.89
19.19
19.37
19.57
19.91
20.37
20.80
20.94
20.55
19.49
17.81
15.75
13.56
11.47
9.52
7.63
5.66
3.52
1.23
-1.08
-3.27
-5.29
-7.15
-8.93
-10.70
-12.46
-14.32
-16.44
-19.13
-22.68
-27.21
-32.43
-37.63
-41.82
-43.97
-43.34
-39.72
-33.46
-25.41
-16.61
-8.07
-0.54
5.60
10.35
13.94
16.69
18.81
20.38
21.39
21.87
21.98
21.99
22.20
22.76
23.61
24.55
25.32
25.78
25.90
25.79
25.55
25.23
24.76
24.05
23.02
21.67
20.06
18.35
16.66
15.07
13.59
12.11
10.41
8.30
5.68
2.55
-0.89
-4.38
-7.70
-10.74
-13.60
-16.52
-19.81
-23.71
-28.29
-33.38
-38.53
-43.08
-46.18
-47.05
-45.13
-40.29
-33.00
-24.17
-14.98
-6.52
0.53
5.92
9.86
12.71
14.83
16.39
17.43
17.97
18.04
17.83
17.55
17.41
17.54
17.96
18.58
19.25
19.78
19.98
19.72
18.92
17.57
15.69
13.31
10.52
7.49
4.47
1.72
-0.64
-2.67
-4.67
-6.97
-9.74
-12.83
-15.86
-18.32
-19.94
-20.73
-21.08
-21.57
-22.69
-24.74
-27.63
-30.94
-34.03
-36.07
-36.30
-34.16
-29.49
-22.58
-14.16
-5.17
3.52
11.28
17.84
23.20
27.53
31.04
33.91
36.32
38.52
40.75
43.20
45.91
48.71
51.28
53.30
54.60
55.25
55.47
55.53
55.59
55.60
55.34
54.49
52.73
49.84
45.81
40.80
35.22
29.60
24.38
19.83
15.84
12.09
8.17
3.85
-0.88
-5.81
-10.73
-15.49
-20.05
-24.37
-28.36
-31.88
-34.88
-37.52
-40.22
-43.36
-47.08
-50.99
-54.18
-55.57
-54.29
-50.02
-43.06
-34.25
-24.61
-15.07
-6.29
1.37
7.78
12.93
16.82
19.48
20.97
21.47
21.30
20.83
20.43
20.30
20.47
20.80
21.19
21.65
22.28
23.17
24.25
25.25
25.80
25.67
24.90
23.77
22.59
21.48
20.31
18.84
16.88
14.45
11.78
9.18
6.86
4.86
3.06
1.32
-0.46
-2.26
-3.99
-5.61
-7.13
-8.65
-10.30
-12.20
-14.38
-16.85
-19.67
-22.97
-26.86
-31.35
-36.09
-40.40
-43.26
-43.74
-41.23
-35.71
-27.83
-18.70
-9.51
-1.30
5.30
10.15
13.43
15.55
16.95
17.95
18.73
19.35
19.83
20.18
20.44
20.61
20.64
20.51
20.23
19.92
19.79
20.01
20.57
21.22
21.55
21.15
19.81
17.66
15.08
12.48
10.14
8.15
6.38
4.71
3.09
1.55
0.18
-1.02
-2.12
-3.30
-4.72
-6.53
-8.74
-11.30
-14.03
-16.75
-19.29
-21.60
-23.76
-25.92
-28.30
-31.05
-34.20
-37.60
-40.90
-43.55
-44.92
-44.35
-41.39
-35.99
-28.55
-19.89
-11.10
-3.10
3.46
8.35
11.70
13.78
14.87
15.24
15.15
14.83
14.54
14.43
14.53
14.73
14.90
14.95
14.92
14.94
15.15
15.59
16.21
16.85
17.34
17.49
17.17
16.30
14.87
12.96
10.71
8.27
5.79
3.37
1.06
-1.09
-3.09
-4.98
-6.88
-8.90
-11.15
-13.65
-16.30
-18.93
-21.42
-23.78
-26.14
-28.74
-31.80
-35.31
-38.91
-41.90
-43.37
-42.51
-38.93
-32.81
-24.93
-16.34
-8.07
-0.82
5.08
9.59
12.79
14.80
15.78
16.01
15.89
15.82
16.04
16.51
17.01
17.29
17.23
16.93
16.62
16.53
16.76
17.19
17.61
17.78
17.55
16.86
15.77
14.37
12.81
11.22
9.62
8.01
6.31
4.49
2.61
0.83
-0.70
-1.91
-2.94
-4.01
-5.37
-7.15
-9.29
-11.63
-13.95
-16.12
-18.13
-20.06
-22.01
-24.16
-26.70
-29.81
-33.53
-37.54
-41.13
-43.28
-43.00
-39.73
-33.58
-25.39
-16.37
-7.68
-0.13
6.00
10.74
14.28
16.73
18.16
18.70
18.60
18.24
17.96
17.94
18.15
18.41
18.55
18.54
18.53
18.71
19.22
20.05
21.04
21.91
22.39
22.24
21.31
19.59
17.26
14.65
12.18
10.17
8.77
7.81
7.01
6.05
4.78
3.22
1.47
-0.43
-2.52
-4.89
-7.52
-10.28
-12.90
-15.16
-16.97
-18.49
-19.97
-21.76
-24.11
-27.15
-30.83
-34.87
-38.68
-41.48
-42.41
-40.76
-36.31
-29.34
-20.68
-11.46
-2.80
4.39
9.66
12.94
14.58
15.12
15.12
15.02
15.04
15.20
15.38
15.42
15.25
14.85
14.26
13.52
12.73
12.00
11.49
11.36
11.69
12.38
13.18
13.72
13.64
12.68
10.82
8.24
5.38
2.74
0.73
-0.47
-1.04
-1.40
-2.07
-3.36
-5.32
-7.71
-10.18
-12.47
-14.49
-16.35
-18.24
-20.35
-22.85
-25.87
-29.43
-33.35
-37.16
-40.10
-41.29
-40.01
-35.95
-29.40
-21.16
-12.27
-3.80
3.48
9.16
13.19
15.72
17.00
17.25
16.70
15.59
14.27
13.17
12.65
12.93
13.89
15.21
16.47
17.39
17.93
18.27
18.58
18.87
18.96
18.52
17.37
15.55
13.36
11.16
9.19
7.44
5.70
3.68
1.19
-1.78
-4.99
-8.13
-10.88
-13.09
-14.83
-16.36
-18.01
-20.12
-22.89
-26.36
-30.35
-34.44
-38.00
-40.23
-40.39
-37.95
-32.87
-25.61
-17.07
-8.34
-0.38
6.14
10.96
14.16
16.00
16.86
17.11
17.08
16.99
17.01
17.23
17.68
18.33
19.08
19.77
20.25
20.42
20.31
20.04
19.79
19.67
19.67
19.63
19.27
18.42
16.98
15.06
12.88
10.71
8.78
7.15
5.75
4.38
2.79
0.79
-1.66
-4.42
-7.26
-9.92
-12.24
-14.27
-16.19
-18.25
-20.63
-23.44
-26.72
-30.41
-34.37
-38.21
-41.32
-42.82
-41.87
-37.90
-31.03
-21.99
-12.03
-2.51
5.54
11.64
15.83
18.47
19.97
20.66
20.77
20.51
20.14
19.96
20.15
20.74
21.55
22.33
22.87
23.14
23.22
23.19
23.11
22.94
22.64
22.18
21.61
20.96
20.24
19.37
18.24
16.82
15.13
13.29
11.42
9.64
8.02
6.61
5.38
4.22
2.95
1.37
-0.65
-3.10
-5.82
-8.58
-11.20
-13.59
-15.81
-17.97
-20.26
-22.83
-25.87
-29.49
-33.63
-37.88
-41.49
-43.48
-42.99
-39.59
-33.52
-25.60
-16.95
-8.66
-1.44
4.38
8.80
11.94
13.99
15.13
15.62
15.83
16.07
16.60
17.43
18.39
19.25
19.87
20.27
20.55
20.85
21.17
21.45
21.60
21.56
21.38
21.14
20.83
20.37
19.59
18.39
16.71
14.65
12.31
9.80
7.22
4.64
2.19
-0.02
-1.95
-3.61
-5.14
-6.65
-8.26
-10.05
-12.08
-14.38
-16.94
-19.76
-22.79
-26.00
-29.40
-32.92
-36.36
-39.24
-40.88
-40.58
-37.96
-33.10
-26.59
-19.33
-12.13
-5.61
-0.06
4.44
7.90
10.32
11.78
12.42
12.53
12.45
12.46
12.69
13.13
13.63
14.09
14.46
14.81
15.28
16.01
16.97
17.99
18.77
19.03
18.57
17.40
15.64
13.52
11.27
9.11
7.20
5.63
4.35
3.14
1.73
-0.11
-2.43
-5.05
-7.66
-10.03
-12.11
-14.05
-16.12
-18.50
-21.27
-24.38
-27.65
-30.77
-33.27
-34.47
-33.70
-30.54
-25.06
-17.95
-10.32
-3.29
2.31
6.22
8.71
10.31
11.55
12.74
13.97
15.15
16.18
17.02
17.73
18.41
19.10
19.77
20.31
20.61
20.66
20.56
20.45
20.45
20.55
20.60
20.33
19.50
17.94
15.69
12.99
10.23
7.81
5.99
4.77
3.92
3.09
1.95
0.34
-1.69
-3.98
-6.35
-8.67
-10.89
-13.00
-15.07
-17.18
-19.46
-22.04
-24.99
-28.16
-31.19
-33.51
-34.49
-33.59
-30.59
-25.61
-19.14
-11.97
-4.97
1.11
5.76
8.90
10.79
11.88
12.62
13.33
14.14
15.03
15.91
16.72
17.45
18.16
18.85
19.52
20.08
20.42
20.48
20.35
20.20
20.22
20.45
20.77
20.91
20.61
19.77
18.54
17.16
15.83
14.57
13.23
11.67
9.90
8.09
6.44
5.03
3.75
2.34
0.54
-1.72
-4.33
-7.05
-9.66
-11.97
-13.92
-15.54
-17.00
-18.55
-20.52
-23.10
-26.28
-29.68
-32.70
-34.61
-34.82
-33.00
-29.23
-23.93
-17.77
-11.53
-5.89
-1.29
2.12
4.52
6.18
7.42
8.45
9.31
10.00
10.52
10.96
11.40
11.98
12.70
13.50
14.21
14.66
14.77
14.51
14.04
13.52
13.14
12.96
12.88
12.73
12.27
11.38
10.05
8.36
6.53
4.77
3.31
2.27
1.69
1.39
1.06
0.40
-0.82
-2.59
-4.67
-6.78
-8.69
-10.32
-11.76
-13.13
-14.50
-15.94
-17.51
-19.32
-21.45
-23.80
-25.93
-27.18
-26.88
-24.70
-20.80
-15.81
-10.54
-5.69
-1.64
1.54
3.94
5.66
6.80
7.45
7.77
7.97
8.24
8.65
9.14
9.61
9.96
10.20
10.39
10.61
10.87
11.14
11.40
11.56
11.57
11.33
10.75
9.80
8.54
7.19
6.02
5.25
4.88
4.72
4.46
3.83
2.72
1.24
-0.35
-1.84
-3.12
-4.19
-5.19
-6.18
-7.25
-8.44
-9.83
-11.47
-13.34
-15.30
-17.12
-18.62
-19.79
-20.81
-21.97
-23.38
-24.81
-25.77
-25.64
-24.03
-20.99
-16.94
-12.50
-8.21
-4.44
-1.33
1.08
2.78
3.85
4.44
4.81
5.20
5.77
6.49
7.25
7.96
8.61
9.30
10.05
10.78
11.31
11.46
11.23
10.84
10.59
10.64
10.90
11.05
10.73
9.79
8.37
6.82
5.55
4.69
4.14
3.57
2.66
1.25
-0.61
-2.71
-4.76
-6.52
-7.84
-8.70
-9.22
-9.64
-10.26
-11.40
-13.22
-15.68
-18.49
-21.24
-23.58
-25.32
-26.54
-27.57
-28.82
-30.54
-32.79
-35.24
-37.35
-38.32
-37.36
-33.86
-27.62
-19.02
-9.01
1.06
9.87
16.48
20.61
22.59
23.10
22.77
22.05
21.09
19.90
18.54
17.19
16.10
15.46
15.30
15.47
15.73
15.90
15.91
15.79
15.63
15.46
15.24
14.85
14.14
13.01
11.46
9.59
7.62
5.77
4.25
3.17
2.49
2.04
1.56
0.86
-0.11
-1.22
-2.26
-3.08
-3.70
-4.31
-5.10
-6.18
-7.45
-8.73
-9.76
-10.47
-10.91
-11.29
-11.88
-12.90
-14.50
-16.76
-19.61
-22.77
-25.76
-27.95
-28.77
-27.87
-25.29
-21.42
-16.84
-12.13
-7.77
-4.03
-1.06
1.11
2.51
3.30
3.71
4.02
4.41
4.94
5.54
6.09
6.52
6.84
7.18
7.64
8.23
8.85
9.36
9.68
9.83
9.93
10.07
10.26
10.36
10.16
9.47
8.26
6.66
4.92
3.31
2.01
1.05
0.30
-0.44
-1.42
-2.82
-4.67
-6.90
-9.27
-11.50
-13.33
-14.66
-15.58
-16.38
-17.41
-18.99
-21.27
-24.17
-27.37
-30.37
-32.53
-33.21
-31.96
-28.66
-23.62
-17.55
-11.37
-5.95
-1.82
0.93
2.58
3.63
4.48
5.37
6.27
7.05
7.62
7.98
8.24
8.55
9.02
9.68
10.53
11.50
12.52
13.50
14.34
14.96
15.31
15.36
15.10
14.49
13.49
12.07
10.35
8.53
6.88
5.57
4.61
3.78
2.78
1.39
-0.40
-2.44
-4.57
-6.68
-8.80
-10.95
-13.13
-15.18
-16.95
-18.43
-19.83
-21.60
-24.15
-27.65
-31.79
-35.81
-38.73
-39.65
-38.07
-34.05
-28.19
-21.31
-14.30
-7.81
-2.20
2.38
5.95
8.53
10.20
11.11
11.51
11.74
12.11
12.86
14.01
15.38
16.70
17.73
18.36
18.64
18.75
18.89
19.20
19.69
20.28
20.82
21.17
21.17
20.70
19.73
18.26
16.43
14.48
12.66
11.08
9.68
8.20
6.35
3.91
0.92
-2.37
-5.62
-8.54
-11.05
-13.19
-15.18
-17.29
-19.78
-22.86
-26.62
-30.92
-35.33
-39.08
-41.33
-41.28
-38.55
-33.29
-26.13
-17.96
-9.65
-1.90
4.91
10.57
15.00
18.22
20.35
21.61
22.33
22.86
23.42
24.12
24.94
25.84
26.76
27.65
28.42
28.97
29.19
29.03
28.57
27.90
27.10
26.13
24.88
23.21
21.10
18.70
16.25
13.94
11.81
9.69
7.39
4.73
1.68
-1.58
-4.84
-7.84
-10.44
-12.65
-14.57
-16.39
-18.37
-20.82
-24.02
-28.15
-33.13
-38.56
-43.63
-47.35
-48.79
-47.35
-43.01
-36.33
-28.30
-20.07
-12.63
-6.59
-2.14
0.99
3.35
5.63
8.51
12.46
17.60
23.70
30.17
36.29
41.38
45.01
47.09
47.77
47.39
46.20
44.37
41.96
38.98
35.50
31.70
27.78
23.99
20.47
17.27
14.30
11.39
8.36
5.08
1.46
-2.44
-6.52
-10.60
-14.50
-18.03
-21.10
-23.76
-26.24
-28.94
-32.21
-36.16
-40.47
-44.36
-46.78
-46.85
-44.15
-38.96
-32.12
-24.69
-17.63
-11.45
-6.18
-1.50
3.10
8.06
13.54
19.36
25.09
30.19
34.20
36.90
38.40
39.05
39.29
39.50
39.93
40.63
41.52
42.41
43.06
43.12
42.27
40.25
36.93
32.38
26.84
20.64
14.17
7.78
1.76
-3.78
-8.82
-13.47
-17.86
-22.09
-26.18
-30.09
-33.75
-37.08
-40.09
-42.89
-45.70
-48.76
-52.21
-55.87
-59.15
-61.10
-60.58
-56.67
-48.88
-37.37
-22.75
-5.85
12.49
31.42
50.10
67.57
82.94
95.59
105.33
112.38
117.04
119.44
119.27
116.02
109.32
99.34
86.96
73.51
60.39
48.58
38.51
30.09
23.04
17.06
11.98
7.73
4.19
1.11
-1.85
-5.00
-8.46
-12.08
-15.47
-18.24
-20.17
-21.32
-22.05
-22.82
-23.99
-25.70
-27.79
-29.97
-31.91
-33.42
-34.51
-35.36
-36.28
-37.57
-39.39
-41.71
-44.18
-46.22
-47.08
-46.18
-43.21
-38.39
-32.33
-25.85
-19.71
-14.34
-9.82
-5.97
-2.56
0.53
3.23
5.42
7.02
8.06
8.73
9.25
9.82
10.56
11.46
12.36
13.10
13.49
13.46
13.03
12.36
11.63
11.00
10.52
10.09
9.54
8.67
7.41
5.82
4.03
2.18
0.32
-1.57
-3.57
-5.69
-7.84
-9.86
-11.59
-12.99
-14.17
-15.35
-16.75
-18.54
-20.79
-23.45
-26.45
-29.55
-32.42
-34.54
-35.35
-34.39
-31.46
-26.78
-20.89
-14.55
-8.47
-3.15
1.23
4.73
7.55
9.87
11.69
12.94
13.50
13.37
12.74
11.95
11.38
11.27
11.66
12.45
13.43
14.42
15.31
16.06
16.60
16.83
16.63
15.85
14.47
12.55
10.25
7.81
5.44
3.24
1.22
-0.75
-2.84
-5.20
-7.83
-10.64
-13.47
-16.09
-18.40
-20.27
-21.73
-22.90
-24.03
-25.44
-27.37
-29.92
-32.78
-35.34
-36.82
-36.47
-33.99
-29.48
-23.49
-16.85
-10.36
-4.67
-0.12
3.20
5.45
6.88
7.80
8.43
8.92
9.32
9.68
10.02
10.41
10.88
11.45
12.10
12.78
13.40
13.82
13.96
13.73
13.10
12.12
10.87
9.42
7.87
6.27
4.65
3.01
1.35
-0.36
-2.15
-4.05
-6.07
-8.22
-10.44
-12.67
-14.79
-16.70
-18.37
-19.92
-21.58
-23.62
-26.13
-28.86
-31.15
-32.15
-31.14
-27.89
-22.74
-16.51
-10.09
-4.19
0.83
4.89
8.04
10.35
11.86
12.71
13.02
13.04
12.95
12.86
12.82
12.84
12.91
12.98
12.99
12.84
12.48
11.98
11.46
11.07
10.84
10.65
10.28
9.53
8.27
6.47
4.20
1.59
-1.22
-4.02
-6.62
-8.88
-10.72
-12.27
-13.75
-15.43
-17.53
-20.16
-23.23
-26.40
-29.19
-30.91
-30.96
-29.00
-25.03
-19.52
-13.14
-6.67
-0.75
4.23
8.05
10.71
12.33
13.14
13.47
13.65
13.92
14.37
14.92
15.40
15.64
15.57
15.26
14.88
14.60
14.47
14.43
14.27
13.82
12.97
11.79
10.49
9.25
8.11
6.96
5.56
3.78
1.66
-0.61
-2.78
-4.75
-6.60
-8.52
-10.67
-13.08
-15.62
-18.14
-20.60
-23.07
-25.63
-28.24
-30.61
-32.20
-32.38
-30.68
-26.97
-21.57
-15.12
-8.43
-2.25
2.89
6.82
9.66
11.69
13.24
14.53
15.63
16.51
17.12
17.46
17.63
17.78
18.05
18.46
18.92
19.31
19.56
19.72
19.91
20.20
20.50
20.59
20.18
19.06
17.23
14.89
12.33
9.85
7.64
5.80
4.34
3.23
2.30
1.34
0.09
-1.62
-3.73
-6.06
-8.35
-10.45
-12.39
-14.33
-16.51
-19.06
-22.03
-25.36
-28.85
-32.13
-34.54
-35.31
-33.74
-29.53
-23.08
-15.36
-7.59
-0.79
4.56
8.51
11.38
13.42
14.72
15.25
15.12
14.66
14.30
14.40
15.05
16.00
16.89
17.43
17.58
17.52
17.51
17.69
18.09
18.55
18.87
18.87
18.44
17.56
16.27
14.68
12.88
10.94
8.85
6.54
4.00
1.28
-1.44
-3.92
-5.96
-7.49
-8.64
-9.68
-10.96
-12.79
-15.35
-18.65
-22.44
-26.19
-29.18
-30.60
-29.82
-26.60
-21.24
-14.50
-7.32
-0.64
4.94
9.15
12.01
13.76
14.65
14.95
14.87
14.58
14.18
13.72
13.24
12.76
12.41
12.29
12.49
12.98
13.61
14.17
14.44
14.33
13.86
13.12
12.20
11.10
9.73
7.96
5.76
3.22
0.59
-1.91
-4.06
-5.87
-7.48
-9.10
-10.91
-12.97
-15.32
-17.93
-20.76
-23.69
-26.39
-28.35
-28.95
-27.72
-24.50
-19.60
-13.62
-7.36
-1.51
3.42
7.19
9.79
11.32
12.03
12.16
11.95
11.55
11.04
10.50
10.06
9.91
10.21
11.00
12.09
13.14
13.79
13.83
13.29
12.38
11.39
10.48
9.70
8.90
7.85
6.35
4.28
1.67
-1.31
-4.35
-7.15
-9.49
-11.36
-12.96
-14.58
-16.53
-18.97
-21.88
-25.07
-28.19
-30.76
-32.19
-31.95
-29.68
-25.34
-19.35
-12.44
-5.54
0.58
5.42
8.85
11.05
12.31
12.92
13.12
13.14
13.17
13.36
13.80
14.45
15.17
15.78
16.16
16.31
16.36
16.38
16.42
16.44
16.28
15.85
15.08
13.93
12.41
10.56
8.49
6.43
4.65
3.33
2.42
1.58
0.36
-1.61
-4.38
-7.64
-10.82
-13.45
-15.34
-16.66
-17.83
-19.31
-21.41
-24.26
-27.71
-31.44
-34.93
-37.51
-38.46
-37.19
-33.48
-27.57
-20.21
-12.45
-5.27
0.61
4.97
7.99
10.09
11.68
13.10
14.50
15.91
17.32
18.66
19.87
20.84
21.51
21.90
22.12
22.28
22.50
22.79
23.03
23.11
22.93
22.50
21.85
21.00
19.96
18.74
17.40
16.08
14.96
14.11
13.53
13.05
12.46
11.60
10.45
9.07
7.54
5.89
4.09
2.14
0.13
-1.77
-3.36
-4.58
-5.54
-6.53
-7.82
-9.62
-11.88
-14.34
-16.74
-18.85
-20.62
-22.18
-23.74
-25.56
-27.89
-30.88
-34.48
-38.35
-41.87
-44.21
-44.58
-42.49
-37.88
-31.22
-23.31
-15.17
-7.70
-1.58
2.92
5.93
7.83
9.12
10.25
11.47
12.87
14.38
15.91
17.33
18.58
19.57
20.21
20.51
20.57
20.58
20.75
21.16
21.75
22.32
22.64
22.55
22.03
21.19
20.14
19.01
17.85
16.70
15.59
14.55
13.55
12.56
11.48
10.23
8.83
7.33
5.82
4.36
2.94
1.51
0.02
-1.52
-3.05
-4.51
-5.94
-7.48
-9.27
-11.38
-13.70
-16.04
-18.18
-20.07
-21.85
-23.79
-26.21
-29.24
-32.81
-36.58
-39.99
-42.40
-43.17
-41.82
-38.16
-32.42
-25.21
-17.35
-9.74
-3.07
2.25
6.10
8.62
10.10
10.88
11.29
11.60
11.96
12.40
12.92
13.48
14.06
14.69
15.37
16.10
16.80
17.43
17.92
18.25
18.41
18.40
18.21
17.86
17.30
16.48
15.36
13.90
12.10
10.04
7.87
5.76
3.83
2.18
0.77
-0.49
-1.78
-3.29
-5.15
-7.42
-9.97
-12.59
-15.00
-17.03
-18.71
-20.26
-22.00
-24.23
-27.08
-30.33
-33.51
-35.93
-36.87
-35.77
-32.36
-26.78
-19.59
-11.64
-3.94
2.67
7.69
11.05
13.02
14.01
14.38
14.31
13.87
13.13
12.27
11.52
11.13
11.14
11.42
11.74
11.98
12.15
12.47
13.10
14.02
15.01
15.67
15.65
14.81
13.28
11.32
9.26
7.26
5.38
3.51
1.50
-0.77
-3.29
-5.98
-8.69
-11.28
-13.64
-15.76
-17.71
-19.65
-21.79
-24.35
-27.41
-30.80
-34.12
-36.66
-37.65
-36.50
-32.94
-27.21
-19.93
-11.97
-4.17
2.75
8.32
12.39
15.01
16.42
16.95
16.88
16.46
15.86
15.20
14.62
14.23
14.09
14.20
14.52
14.99
15.61
16.40
17.34
18.30
19.01
19.11
18.34
16.62
14.13
11.25
8.41
5.94
3.96
2.40
1.01
-0.53
-2.47
-4.92
-7.71
-10.61
-13.33
-15.75
-17.88
-19.91
-22.10
-24.72
-27.95
-31.77
-35.94
-39.91
-42.86
-43.91
-42.38
-38.01
-31.17
-22.73
-13.79
-5.45
1.60
7.10
11.17
14.16
16.40
18.12
19.41
20.37
21.10
21.77
22.52
23.36
24.14
24.63
24.73
24.53
24.34
24.46
25.00
25.76
26.30
26.25
25.46
24.13
22.59
21.12
19.75
18.30
16.59
14.50
12.16
9.79
7.58
5.65
3.95
2.38
0.79
-0.99
-3.13
-5.73
-8.76
-11.97
-15.01
-17.57
-19.57
-21.24
-23.03
-25.41
-28.70
-32.94
-37.89
-43.00
-47.51
-50.51
-51.06
-48.46
-42.53
-33.78
-23.32
-12.62
-2.98
4.71
10.19
13.74
15.93
17.33
18.42
19.48
20.64
21.94
23.34
24.74
25.98
26.89
27.41
27.60
27.67
27.86
28.35
29.18
30.18
31.06
31.51
31.32
30.41
28.86
26.88
24.69
22.52
20.53
18.79
17.28
15.90
14.50
12.99
11.26
9.32
7.18
4.91
2.58
0.27
-2.04
-4.34
-6.70
-9.13
-11.61
-14.05
-16.35
-18.44
-20.36
-22.31
-24.60
-27.60
-31.56
-36.42
-41.73
-46.64
-50.08
-51.05
-48.91
-43.62
-35.74
-26.31
-16.53
-7.46
0.23
6.31
10.91
14.35
16.89
18.74
19.97
20.65
20.93
21.04
21.22
21.62
22.24
22.93
23.54
23.99
24.33
24.72
25.26
25.94
26.55
26.84
26.54
25.57
24.00
22.06
20.02
18.04
16.21
14.49
12.77
10.95
8.98
6.84
4.54
2.13
-0.34
-2.77
-5.12
-7.36
-9.50
-11.60
-13.70
-15.78
-17.84
-19.95
-22.30
-25.18
-28.80
-33.16
-37.83
-42.04
-44.82
-45.27
-42.87
-37.65
-30.20
-21.45
-12.43
-4.02
3.18
8.89
13.07
15.83
17.32
17.77
17.46
16.78
16.12
15.81
15.98
16.52
17.16
17.63
17.73
17.55
17.34
17.37
17.80
18.50
19.09
19.18
18.51
17.09
15.16
13.04
10.95
8.96
7.01
5.01
2.97
0.98
-0.89
-2.67
-4.54
-6.71
-9.27
-12.12
-14.99
-17.62
-19.92
-22.07
-24.49
-27.56
-31.34
-35.47
-39.15
-41.39
-41.35
-38.62
-33.32
-26.09
-17.86
-9.61
-2.18
3.93
8.52
11.67
13.63
14.71
15.23
15.44
15.49
15.49
15.42
15.28
15.06
14.80
14.64
14.75
15.24
16.04
16.97
17.68
17.89
17.43
16.31
14.69
12.75
10.66
8.51
6.31
4.08
1.81
-0.53
-2.99
-5.59
-8.25
-10.85
-13.17
-15.12
-16.74
-18.34
-20.36
-23.20
-26.96
-31.39
-35.83
-39.41
-41.29
-40.81
-37.74
-32.26
-24.96
-16.70
-8.43
-1.01
5.03
9.51
12.61
14.68
16.15
17.32
18.33
19.21
19.90
20.36
20.55
20.50
20.28
20.03
19.91
20.06
20.51
21.16
21.76
22.07
21.88
21.06
19.56
17.42
14.77
11.83
8.95
6.43
4.50
3.14
2.11
0.98
-0.68
-3.13
-6.31
-9.86
-13.27
-16.09
-18.12
-19.55
-20.87
-22.75
-25.66
-29.70
-34.42
-38.93
-42.10
-42.94
-40.85
-35.78
-28.28
-19.33
-10.10
-1.63
5.36
10.58
14.14
16.40
17.80
18.77
19.65
20.68
21.98
23.49
25.03
26.31
27.11
27.37
27.25
27.02
26.94
27.10
27.40
27.63
27.58
27.17
26.40
25.29
23.87
22.10
20.01
17.70
15.35
13.18
11.31
9.72
8.30
6.83
5.14
3.09
0.67
-2.11
-5.15
-8.29
-11.32
-14.05
-16.33
-18.16
-19.70
-21.27
-23.22
-25.83
-29.21
-33.23
-37.48
-41.31
-43.87
-44.36
-42.23
-37.37
-30.27
-21.83
-13.17
-5.28
1.25
6.29
10.01
12.74
14.77
16.26
17.34
18.13
18.82
19.62
20.70
22.05
23.50
24.75
25.49
25.57
25.03
24.17
23.37
22.92
22.89
23.09
23.19
22.84
21.93
20.53
18.88
17.22
15.68
14.24
12.82
11.31
9.71
8.08
6.48
4.98
3.61
2.35
1.13
-0.21
-1.84
-3.91
-6.43
-9.29
-12.22
-14.92
-17.19
-19.01
-20.54
-22.05
-23.87
-26.27
-29.38
-33.05
-36.81
-39.91
-41.46
-40.74
-37.42
-31.77
-24.53
-16.71
-9.26
-2.90
2.05
5.59
8.01
9.70
11.07
12.40
13.76
15.05
16.05
16.63
16.82
16.80
16.79
16.94
17.22
17.57
17.95
18.40
18.97
19.65
20.20
20.31
19.70
18.34
16.46
14.49
12.81
11.57
10.71
9.93
9.00
7.75
6.19
4.46
2.73
1.19
-0.09
-1.13
-2.12
-3.29
-4.90
-7.06
-9.68
-12.47
-15.05
-17.16
-18.73
-19.93
-21.16
-22.83
-25.28
-28.54
-32.33
-35.98
-38.62
-39.39
-37.73
-33.58
-27.43
-20.18
-12.82
-6.19
-0.76
3.35
6.28
8.29
9.61
10.43
10.89
11.09
11.18
11.32
11.63
12.17
12.92
13.72
14.43
14.92
15.18
15.26
15.25
15.22
15.19
15.09
14.81
14.23
13.28
11.95
10.31
8.51
6.75
5.19
3.94
2.93
2.01
0.96
-0.40
-2.11
-4.08
-6.17
-8.23
-10.18
-11.99
-13.64
-15.06
-16.23
-17.20
-18.16
-19.50
-21.63
-24.73
-28.59
-32.50
-35.46
-36.48
-34.95
-30.84
-24.76
-17.66
-10.56
-4.26
0.82
4.62
7.32
9.20
10.51
11.40
11.95
12.19
12.17
11.96
11.71
11.54
11.53
11.66
11.83
12.00
12.18
12.47
12.97
13.69
14.43
14.87
14.69
13.76
12.21
10.33
8.44
6.72
5.15
3.57
1.77
-0.33
-2.70
-5.19
-7.63
-9.89
-11.89
-13.64
-15.16
-16.53
-17.85
-19.30
-21.07
-23.36
-26.27
-29.67
-33.13
-35.96
-37.33
-36.55
-33.33
-27.94
-21.09
-13.77
-6.93
-1.19
3.21
6.37
8.55
9.99
10.91
11.40
11.59
11.67
11.83
12.21
12.82
13.54
14.18
14.58
14.74
14.80
14.93
15.26
15.77
16.27
16.48
16.15
15.18
13.63
11.73
9.76
7.93
6.30
4.72
2.98
0.88
-1.64
-4.40
-7.13
-9.55
-11.50
-13.05
-14.41
-15.85
-17.54
-19.59
-22.08
-25.09
-28.70
-32.75
-36.79
-40.03
-41.53
-40.52
-36.76
-30.62
-23.02
-15.04
-7.63
-1.36
3.57
7.23
9.74
11.29
12.06
12.32
12.34
12.40
12.65
13.11
13.69
14.29
14.88
15.48
16.13
16.81
17.42
17.83
17.96
17.79
17.38
16.77
15.92
14.76
13.27
11.59
9.96
8.60
7.60
6.75
5.70
4.06
1.69
-1.26
-4.43
-7.45
-10.13
-12.45
-14.56
-16.64
-18.87
-21.35
-24.23
-27.65
-31.57
-35.74
-39.51
-42.04
-42.43
-40.12
-35.06
-27.76
-19.18
-10.40
-2.40
4.15
8.96
12.10
13.89
14.81
15.31
15.72
16.20
16.76
17.36
17.97
18.65
19.40
20.18
20.89
21.40
21.68
21.84
22.04
22.32
22.57
22.50
21.80
20.32
18.15
15.59
13.00
10.60
8.45
6.48
4.58
2.62
0.53
-1.74
-4.22
-6.85
-9.49
-11.95
-14.12
-16.04
-17.98
-20.30
-23.33
-27.11
-31.39
-35.49
-38.59
-39.83
-38.57
-34.56
-28.03
-19.66
-10.44
-1.45
6.35
12.33
16.27
18.40
19.21
19.31
19.18
19.07
19.02
18.95
18.78
18.56
18.43
18.51
18.82
19.26
19.66
19.92
19.99
19.91
19.70
19.31
18.63
17.60
16.17
14.39
12.38
10.24
8.04
5.81
3.50
1.04
-1.66
-4.58
-7.59
-10.41
-12.78
-14.58
-15.98
-17.46
-19.59
-22.75
-26.86
-31.24
-34.87
-36.62
-35.72
-31.96
-25.75
-17.96
-9.66
-1.80
4.91
10.15
13.94
16.48
18.03
18.83
19.03
18.72
18.03
17.14
16.29
15.73
15.56
15.79
16.29
16.92
17.54
18.09
18.48
18.61
18.37
17.72
16.70
15.42
13.97
12.39
10.56
8.37
5.75
2.79
-0.28
-3.15
-5.61
-7.66
-9.44
-11.25
-13.34
-15.90
-18.95
-22.38
-25.82
-28.75
-30.44
-30.21
-27.60
-22.59
-15.69
-7.77
0.10
7.04
12.52
16.35
18.65
19.61
19.45
18.45
16.95
15.35
14.02
13.20
12.93
13.09
13.54
14.09
14.62
14.99
15.05
14.73
14.10
13.37
12.76
12.32
11.84
10.86
8.98
6.03
2.30
-1.69
-5.37
-8.41
-10.79
-12.73
-14.46
-16.18
-18.00
-20.01
-22.41
-25.33
-28.71
-32.15
-34.92
-36.17
-35.21
-31.83
-26.34
-19.49
-12.19
-5.22
0.88
5.87
9.74
12.61
14.66
16.05
16.92
17.32
17.35
17.05
16.56
16.06
15.71
15.62
15.76
16.04
16.33
16.56
16.64
16.53
16.12
15.32
14.08
12.48
10.64
8.72
6.83
4.97
3.12
1.24
-0.69
-2.61
-4.54
-6.47
-8.51
-10.74
-13.27
-16.14
-19.32
-22.69
-26.01
-28.87
-30.69
-30.90
-29.04
-25.02
-19.19
-12.25
-5.15
1.27
6.46
10.21
12.67
14.18
15.08
15.66
16.10
16.47
16.81
17.14
17.48
17.84
18.21
18.53
18.73
18.77
18.66
18.41
18.08
17.66
17.04
16.11
14.77
13.02
10.99
8.87
6.83
4.97
3.28
1.69
0.11
-1.52
-3.24
-5.06
-6.98
-9.01
-11.16
-13.47
-15.97
-18.72
-21.77
-25.07
-28.37
-31.19
-32.87
-32.70
-30.25
-25.51
-19.03
-11.73
-4.67
1.34
5.91
9.11
11.29
12.81
13.92
14.68
15.13
15.30
15.32
15.35
15.50
15.81
16.25
16.77
17.37
18.04
18.74
19.34
19.64
19.42
18.58
17.16
15.34
13.39
11.50
9.80
8.27
6.89
5.59
4.28
2.86
1.20
-0.78
-3.07
-5.53
-7.93
-10.04
-11.87
-13.63
-15.67
-18.33
-21.63
-25.25
-28.52
-30.67
-31.05
-29.33
-25.57
-20.12
-13.66
-6.93
-0.70
4.46
8.24
10.61
11.81
12.20
12.08
11.63
10.98
10.21
9.40
8.66
8.06
7.63
7.31
7.05
6.86
6.81
6.96
7.29
7.68
7.89
7.70
6.94
5.63
3.88
1.86
-0.30
-2.49
-4.68
-6.81
-8.84
-10.69
-12.35
-13.83
-15.18
-16.51
-17.96
-19.68
-21.87
-24.64
-27.92
-31.26
-33.92
-34.98
-33.72
-29.96
-24.15
-17.26
-10.38
-4.37
0.38
3.90
6.46
8.31
9.54
10.13
10.07
9.45
8.50
7.53
6.77
6.36
6.30
6.52
6.92
7.43
8.04
8.72
9.46
10.17
10.74
10.94
10.59
9.53
7.81
5.62
3.24
0.92
-1.25
-3.36
-5.60
-8.04
-10.61
-13.07
-15.23
-17.07
-18.82
-20.85
-23.37
-26.30
-29.16
-31.24
-31.84
-30.55
-27.32
-22.46
-16.53
-10.12
-3.81
1.94
6.79
10.60
13.35
15.13
16.13
16.52
16.46
16.10
15.61
15.12
14.78
14.63
14.66
14.75
14.79
14.76
14.66
14.56
14.41
14.09
13.39
12.18
10.46
8.40
6.24
4.13
2.10
0.03
-2.17
-4.53
-6.90
-9.10
-11.04
-12.72
-14.34
-16.11
-18.24
-20.84
-23.90
-27.25
-30.47
-32.96
-34.01
-32.99
-29.61
-24.08
-17.03
-9.39
-2.10
4.13
8.89
12.15
14.14
15.23
15.78
16.10
16.35
16.57
16.76
16.89
16.97
17.04
17.17
17.42
17.88
18.59
19.56
20.70
21.85
22.75
23.14
22.79
21.64
19.81
17.62
15.43
13.50
11.87
10.26
8.28
5.57
2.10
-1.91
-6.03
-9.93
-13.45
-16.68
-19.82
-22.97
-26.11
-29.14
-31.97
-34.55
-36.71
-38.14
-38.32
-36.72
-33.03
-27.36
-20.26
-12.62
-5.31
0.99
5.92
9.44
11.73
13.06
13.72
13.98
13.96
13.67
13.07
12.16
11.07
10.10
9.60
9.79
10.60
11.67
12.51
12.74
12.25
11.20
9.92
8.65
7.47
6.28
4.94
3.40
1.69
-0.07
-1.87
-3.69
-5.58
-7.56
-9.53
-11.42
-13.18
-14.91
-16.81
-19.08
-21.88
-25.14
-28.56
-31.61
-33.62
-33.93
-32.07
-27.92
-21.79
-14.39
-6.67
0.50
6.49
11.01
14.15
16.15
17.31
17.87
18.03
17.93
17.68
17.37
17.04
16.73
16.44
16.24
16.25
16.57
17.13
17.72
18.01
17.65
16.51
14.67
12.45
10.18
8.15
6.43
4.96
3.62
2.28
0.86
-0.72
-2.47
-4.36
-6.33
-8.27
-10.11
-11.88
-13.75
-15.97
-18.77
-22.13
-25.68
-28.77
-30.56
-30.35
-27.84
-23.21
-17.02
-10.07
-3.15
3.15
8.43
12.51
15.38
17.11
17.87
17.84
17.25
16.32
15.27
14.36
13.72
13.48
13.56
13.84
14.15
14.40
14.60
14.81
15.05
15.23
15.18
14.71
13.75
12.36
10.70
8.92
7.13
5.38
3.65
1.97
0.31
-1.33
-3.01
-4.84
-6.83
-8.94
-11.08
-13.19
-15.33
-17.72
-20.53
-23.76
-27.07
-29.75
-30.97
-30.06
-26.80
-21.49
-14.84
-7.71
-0.88
5.12
9.96
13.49
15.73
16.82
17.01
16.56
15.75
14.74
13.63
12.53
11.58
10.95
10.78
11.05
11.59
12.12
12.40
12.34
12.02
11.60
11.21
10.87
10.46
9.79
8.70
7.10
5.03
2.63
0.09
-2.38
-4.63
-6.60
-8.33
-9.94
-11.58
-13.38
-15.46
-17.85
-20.48
-23.13
-25.39
-26.69
-26.49
-24.41
-20.45
-15.01
-8.80
-2.59
2.96
7.50
10.92
13.29
14.67
15.14
14.75
13.61
11.96
10.16
8.61
7.65
7.43
7.88
8.74
9.69
10.48
11.03
11.35
11.46
11.32
10.81
9.87
8.52
6.94
5.31
3.75
2.18
0.43
-1.64
-4.01
-6.44
-8.63
-10.37
-11.73
-13.05
-14.79
-17.32
-20.71
-24.61
-28.32
-30.95
-31.68
-30.00
-25.89
-19.83
-12.65
-5.34
1.26
6.61
10.55
13.15
14.61
15.13
14.89
14.06
12.88
11.62
10.54
9.78
9.39
9.31
9.50
9.98
10.77
11.90
13.21
14.44
15.24
15.37
14.77
13.60
12.15
10.65
9.14
7.53
5.64
3.35
0.73
-2.04
-4.76
-7.29
-9.63
-11.84
-14.06
-16.42
-19.05
-22.02
-25.32
-28.67
-31.57
-33.35
-33.33
-31.11
-26.68
-20.46
-13.19
-5.70
1.22
7.01
11.35
14.23
15.82
16.37
16.14
15.36
14.23
12.99
11.93
11.31
11.30
11.81
12.61
13.40
13.98
14.35
14.63
14.92
15.19
15.25
14.87
13.90
12.36
10.40
8.27
6.16
4.15
2.23
0.30
-1.75
-3.96
-6.26
-8.46
-10.37
-11.89
-13.07
-14.16
-15.55
-17.64
-20.64
-24.44
-28.59
-32.34
-34.81
-35.25
-33.21
-28.72
-22.25
-14.68
-6.93
0.18
6.13
10.72
13.97
16.04
17.15
17.56
17.55
17.38
17.26
17.30
17.55
17.97
18.49
19.03
19.46
19.65
19.54
19.16
18.68
18.33
18.26
18.43
18.58
18.37
17.53
16.06
14.13
12.03
9.98
8.01
6.01
3.82
1.37
-1.28
-3.98
-6.60
-9.03
-11.24
-13.29
-15.22
-17.13
-19.16
-21.49
-24.33
-27.75
-31.61
-35.46
-38.62
-40.35
-40.09
-37.62
-33.12
-27.07
-20.08
-12.82
-5.86
0.35
5.48
9.36
11.98
13.51
14.24
14.48
14.48
14.42
14.37
14.37
14.45
14.60
14.78
14.95
15.08
15.16
15.26
15.45
15.71
15.99
16.16
16.09
15.68
14.88
13.64
12.01
10.06
7.90
5.75
3.74
1.94
0.31
-1.26
-2.86
-4.49
-6.12
-7.75
-9.43
-11.30
-13.54
-16.26
-19.46
-23.04
-26.77
-30.25
-32.93
-34.17
-33.38
-30.23
-24.80
-17.70
-9.83
-2.18
4.47
9.71
13.50
15.98
17.39
17.88
17.59
16.65
15.27
13.76
12.43
11.60
11.40
11.81
12.68
13.73
14.65
15.20
15.25
14.81
14.06
13.21
12.40
11.63
10.73
9.45
7.69
5.50
3.11
0.79
-1.32
-3.25
-5.16
-7.22
-9.47
-11.87
-14.35
-16.96
-19.83
-23.10
-26.64
-30.01
-32.46
-33.23
-31.80
-28.10
-22.53
-15.77
-8.59
-1.68
4.49
9.59
13.47
16.13
17.60
18.03
17.55
16.35
14.72
13.01
11.64
10.89
10.81
11.18
11.59
11.72
11.44
10.91
10.43
10.21
10.23
10.23
9.83
8.74
6.85
4.27
1.27
-1.83
-4.74
-7.27
-9.36
-11.13
-12.81
-14.71
-17.15
-20.33
-24.19
-28.38
-32.25
-34.97
-35.77
-34.19
-30.19
-24.20
-17.03
-9.52
-2.45
3.72
8.76
12.62
15.36
17.01
17.62
17.29
16.24
14.80
13.38
12.33
11.82
11.81
12.05
12.25
12.23
11.98
11.67
11.45
11.38
11.30
10.95
10.12
8.69
6.70
4.27
1.53
-1.43
-4.45
-7.38
-10.03
-12.29
-14.25
-16.16
-18.40
-21.19
-24.50
-27.95
-30.88
-32.53
-32.28
-29.83
-25.25
-18.99
-11.76
-4.32
2.64
8.65
13.48
17.04
19.33
20.40
20.29
19.17
17.36
15.32
13.55
12.48
12.35
13.09
14.36
15.70
16.68
17.05
16.83
16.20
15.42
14.62
13.77
12.72
11.27
9.34
6.96
4.21
1.19
-1.99
-5.20
-8.32
-11.20
-13.77
-16.12
-18.49
-21.13
-24.19
-27.50
-30.69
-33.21
-34.46
-33.94
-31.37
-26.66
-20.07
-12.18
-3.82
4.09
10.79
15.81
19.08
20.79
21.27
20.89
19.95
18.76
17.66
16.92
16.74
17.17
18.05
19.16
20.24
21.07
21.51
21.51
21.12
20.44
19.62
18.75
17.86
16.81
15.40
13.45
10.88
7.79
4.44
1.16
-1.84
-4.49
-6.89
-9.20
-11.49
-13.77
-15.96
-18.14
-20.56
-23.55
-27.22
-31.20
-34.60
-36.23
-35.11
-30.88
-24.01
-15.57
-6.87
1.03
7.46
12.20
15.33
17.05
17.65
17.47
16.88
16.22
15.76
15.62
15.85
16.36
17.01
17.61
17.99
18.09
17.97
17.79
17.68
17.69
17.69
17.47
16.83
15.73
14.22
12.48
10.63
8.70
6.58
4.15
1.40
-1.58
-4.54
-7.25
-9.57
-11.53
-13.34
-15.26
-17.58
-20.42
-23.78
-27.46
-31.08
-34.07
-35.72
-35.35
-32.49
-27.13
-19.79
-11.51
-3.40
3.60
9.01
12.88
15.49
17.17
18.08
18.28
17.82
16.91
15.85
14.98
14.47
14.26
14.17
14.10
14.09
14.31
14.95
15.98
17.15
18.00
18.10
17.17
15.19
12.43
9.27
6.12
3.31
0.97
-0.91
-2.52
-4.09
-5.80
-7.78
-10.05
-12.51
-15.07
-17.60
-20.11
-22.63
-25.23
-27.94
-30.61
-32.89
-34.21
-33.98
-31.73
-27.35
-21.16
-13.87
-6.35
0.59
6.46
11.09
14.56
17.04
18.63
19.37
19.26
18.41
17.09
15.67
14.54
13.89
13.72
13.91
14.25
14.65
15.10
15.61
16.21
16.76
17.06
16.87
16.02
14.47
12.36
9.92
7.42
5.05
2.88
0.86
-1.12
-3.15
-5.23
-7.29
-9.22
-10.96
-12.56
-14.17
-16.00
-18.27
-21.16
-24.70
-28.72
-32.81
-36.33
-38.52
-38.65
-36.29
-31.43
-24.54
-16.47
-8.21
-0.68
5.51
10.07
13.02
14.57
15.00
14.63
13.74
12.70
11.82
11.40
11.55
12.22
13.14
13.98
14.50
14.65
14.58
14.52
14.68
15.07
15.54
15.84
15.66
14.82
13.25
11.03
8.36
5.55
2.88
0.54
-1.45
-3.20
-4.90
-6.64
-8.43
-10.18
-11.82
-13.47
-15.34
-17.72
-20.76
-24.38
-28.26
-31.90
-34.69
-36.03
-35.46
-32.70
-27.84
-21.36
-14.03
-6.79
-0.38
4.77
8.63
11.38
13.29
14.53
15.15
15.23
14.89
14.33
13.75
13.32
13.09
13.05
13.15
13.37
13.70
14.14
14.67
15.19
15.58
15.67
15.35
14.56
13.30
11.68
9.81
7.84
5.87
3.95
2.06
0.10
-2.03
-4.41
-7.03
-9.78
-12.45
-14.85
-16.89
-18.72
-20.65
-23.03
-25.95
-29.07
-31.68
-32.92
-32.11
-29.00
-23.88
-17.42
-10.46
-3.71
2.28
7.20
10.89
13.31
14.47
14.46
13.49
11.85
9.86
7.93
6.33
5.24
4.68
4.52
4.62
4.86
5.15
5.47
5.86
6.38
6.99
7.57
7.90
7.71
6.86
5.39
3.57
1.76
0.19
-1.13
-2.46
-4.06
-6.01
-8.10
-9.99
-11.43
-12.44
-13.32
-14.41
-15.98
-18.15
-20.91
-24.18
-27.72
-31.09
-33.56
-34.28
-32.52
-28.10
-21.42
-13.41
-5.17
2.28
8.32
12.73
15.58
17.15
17.75
17.64
17.01
15.96
14.65
13.28
12.12
11.37
11.08
11.11
11.24
11.27
11.16
11.03
10.98
11.06
11.10
10.87
10.13
8.79
6.89
4.60
2.11
-0.42
-2.86
-5.15
-7.25
-9.19
-11.02
-12.82
-14.64
-16.59
-18.74
-21.18
-23.91
-26.76
-29.30
-30.82
-30.55
-27.91
-22.78
-15.60
-7.30
1.01
8.35
14.21
18.51
21.51
23.54
24.78
25.30
25.12
24.36
23.28
22.18
21.31
20.74
20.42
20.28
20.31
20.54
21.04
21.72
22.41
22.79
22.56
21.53
19.62
16.87
13.39
9.41
5.19
1.10
-2.53
-5.52
-7.91
-9.97
-12.10
-14.65
-17.87
-21.77
-26.05
-30.25
-33.73
-35.80
-35.91
-33.72
-29.30
-23.10
-15.93
-8.65
-2.05
3.42
7.67
10.84
13.12
14.59
15.20
14.89
13.68
11.85
9.82
8.05
6.82
6.16
5.93
5.95
6.11
6.40
6.85
7.45
8.01
8.24
7.77
6.35
3.85
0.39
-3.67
-7.82
-11.59
-14.64
-16.92
-18.70
-20.43
-22.58
-25.38
-28.77
-32.36
-35.53
-37.62
-38.08
-36.54
-32.94
-27.50
-20.65
-12.98
-5.12
2.35
9.00
14.52
18.76
21.66
23.26
23.63
22.97
21.56
19.82
18.19
17.13
16.90
17.57
18.87
20.38
21.62
22.21
22.00
21.02
19.45
17.52
15.46
13.44
11.52
9.64
7.65
5.37
2.69
-0.35
-3.57
-6.75
-9.74
-12.48
-14.96
-17.29
-19.56
-21.92
-24.61
-27.76
-31.23
-34.47
-36.53
-36.34
-33.16
-26.96
-18.52
-9.08
0.03
7.86
13.97
18.37
21.25
22.80
23.25
22.89
22.14
21.48
21.29
21.68
22.48
23.33
23.88
24.01
23.82
23.59
23.51
23.67
23.90
23.97
23.62
22.76
21.43
19.75
17.86
15.82
13.68
11.46
9.22
6.97
4.70
2.28
-0.41
-3.41
-6.59
-9.66
-12.33
-14.46
-16.17
-17.83
-19.89
-22.73
-26.44
-30.80
-35.20
-38.82
-40.77
-40.32
-37.14
-31.43
-23.85
-15.41
-7.08
0.41
6.69
11.71
15.55
18.32
20.10
21.01
21.23
21.02
20.70
20.50
20.57
20.94
21.52
22.15
22.72
23.10
23.24
23.15
22.90
22.62
22.39
22.22
21.99
21.49
20.50
18.93
16.84
14.45
12.00
9.65
7.46
5.37
3.32
1.28
-0.76
-2.83
-5.00
-7.31
-9.76
-12.17
-14.33
-16.12
-17.59
-19.08
-21.00
-23.70
-27.21
-31.22
-35.14
-38.19
-39.68
-39.06
-36.09
-30.87
-23.94
-16.07
-8.22
-1.19
4.47
8.57
11.24
12.76
13.48
13.68
13.65
13.60
13.67
13.90
14.22
14.50
14.61
14.60
14.64
14.96
15.71
16.83
18.03
18.95
19.26
18.85
17.81
16.34
14.65
12.85
10.99
9.06
7.08
5.11
3.18
1.29
-0.63
-2.63
-4.74
-6.86
-8.87
-10.66
-12.27
-13.84
-15.62
-17.86
-20.74
-24.24
-28.10
-31.77
-34.50
-35.55
-34.39
-30.94
-25.54
-18.90
-11.83
-5.05
0.97
5.96
9.78
12.37
13.78
14.22
13.96
13.40
12.83
12.43
12.24
12.23
12.34
12.56
12.83
13.08
13.24
13.25
13.16
13.15
13.38
13.88
14.49
14.82
14.45
13.13
10.89
8.09
5.23
2.74
0.82
-0.59
-1.79
-3.07
-4.68
-6.64
-8.86
-11.10
-13.17
-14.96
-16.45
-17.77
-19.11
-20.66
-22.58
-24.89
-27.52
-30.21
-32.56
-34.07
-34.22
-32.59
-29.03
-23.71
-17.15
-10.09
-3.34
2.49
7.05
10.33
12.51
13.86
14.61
14.95
14.93
14.62
14.09
13.42
12.74
12.18
11.87
11.91
12.32
13.04
13.88
14.59
14.98
14.94
14.50
13.80
12.91
11.86
10.61
9.17
7.66
6.23
5.03
4.04
3.00
1.60
-0.42
-3.02
-5.86
-8.52
-10.64
-12.17
-13.28
-14.25
-15.36
-16.74
-18.50
-20.78
-23.68
-27.11
-30.69
-33.68
-35.19
-34.48
-31.29
-25.94
-19.21
-12.09
-5.44
0.18
4.55
7.70
9.77
10.95
11.39
11.29
10.87
10.39
10.09
10.09
10.41
10.97
11.62
12.25
12.81
13.34
13.93
14.65
15.49
16.34
16.99
17.18
16.69
15.45
13.58
11.42
9.36
7.67
6.41
5.36
4.19
2.59
0.43
-2.25
-5.29
-8.46
-11.58
-14.48
-17.02
-19.09
-20.68
-21.93
-23.16
-24.78
-27.14
-30.33
-34.05
-37.64
-40.18
-40.81
-38.97
-34.62
-28.25
-20.76
-13.13
-6.17
-0.35
4.18
7.51
9.80
11.19
11.84
11.90
11.61
11.21
10.88
10.72
10.71
10.79
10.92
11.09
11.40
11.88
12.51
13.15
13.63
13.73
13.34
12.44
11.13
9.55
7.83
6.07
4.27
2.37
0.32
-1.93
-4.38
-6.89
-9.35
-11.65
-13.75
-15.73
-17.74
-19.95
-22.51
-25.41
-28.47
-31.35
-33.54
-34.48
-33.69
-30.89
-26.16
-19.95
-12.95
-5.90
0.60
6.21
10.87
14.56
17.31
19.04
19.67
19.25
18.01
16.32
14.57
13.09
12.06
11.56
11.60
12.13
13.00
13.99
14.81
15.20
15.02
14.25
13.02
11.47
9.71
7.78
5.68
3.40
0.97
-1.58
-4.23
-6.91
-9.56
-12.07
-14.32
-16.28
-18.08
-19.98
-22.35
-25.39
-29.11
-33.14
-36.86
-39.47
-40.28
-38.81
-34.92
-28.85
-21.13
-12.59
-4.13
3.40
9.38
13.56
16.07
17.29
17.70
17.63
17.26
16.66
15.87
15.05
14.46
14.33
14.77
15.68
16.82
17.89
18.71
19.24
19.53
19.59
19.33
18.62
17.40
15.73
13.83
11.87
9.92
7.88
5.55
2.76
-0.45
-3.88
-7.23
-10.28
-12.96
-15.45
-18.07
-21.13
-24.84
-29.18
-33.85
-38.28
-41.66
-43.14
-42.04
-38.10
-31.58
-23.27
-14.23
-5.47
2.25
8.57
13.41
16.87
19.07
20.14
20.24
19.68
18.88
18.23
18.02
18.34
19.03
19.86
20.56
20.95
21.00
20.82
20.61
20.57
20.82
21.24
21.51
21.18
19.87
17.42
13.95
9.84
5.58
1.58
-1.92
-4.87
-7.37
-9.64
-11.98
-14.68
-18.00
-21.93
-26.18
-30.06
-32.73
-33.36
-31.41
-26.79
-19.93
-11.60
-2.83
5.40
12.33
17.53
20.97
22.87
23.59
23.50
22.87
21.98
21.04
20.33
19.99
20.05
20.36
20.69
20.87
20.84
20.68
20.52
20.43
20.31
19.98
19.23
17.89
15.89
13.23
9.99
6.35
2.59
-0.98
-4.11
-6.72
-8.93
-11.00
-13.27
-16.06
-19.50
-23.50
-27.70
-31.45
-33.94
-34.45
-32.47
-27.91
-21.16
-12.95
-4.19
4.21
11.49
17.17
21.07
23.26
24.03
23.77
22.83
21.53
20.09
18.71
17.58
16.86
16.66
16.97
17.70
18.63
19.55
20.24
20.49
20.18
19.31
17.99
16.41
14.72
12.96
11.03
8.77
6.07
3.00
-0.18
-3.13
-5.64
-7.68
-9.44
-11.23
-13.33
-15.90
-19.02
-22.61
-26.46
-30.15
-33.05
-34.37
-33.41
-29.83
-23.78
-16.00
-7.58
0.30
6.78
11.39
14.14
15.37
15.51
15.00
14.16
13.24
12.42
11.83
11.53
11.52
11.70
12.01
12.38
12.82
13.39
14.09
14.87
15.57
15.99
15.92
15.25
14.02
12.34
10.39
8.30
6.12
3.88
1.54
-0.84
-3.20
-5.43
-7.49
-9.38
-11.18
-13.02
-14.99
-17.22
-19.83
-22.96
-26.59
-30.47
-34.02
-36.35
-36.61
-34.23
-29.24
-22.22
-14.15
-6.04
1.30
7.44
12.21
15.67
17.95
19.22
19.71
19.62
19.16
18.53
17.90
17.40
17.16
17.24
17.59
18.09
18.56
18.90
19.13
19.33
19.58
19.79
19.72
19.05
17.58
15.33
12.59
9.82
7.41
5.57
4.26
3.18
1.97
0.38
-1.68
-4.11
-6.69
-9.23
-11.59
-13.75
-15.75
-17.67
-19.65
-21.84
-24.42
-27.53
-31.07
-34.62
-37.48
-38.81
-37.93
-34.55
-28.91
-21.66
-13.66
-5.81
1.21
6.94
11.25
14.22
16.12
17.24
17.84
18.08
18.06
17.88
17.71
17.72
17.97
18.35
18.63
18.59
18.20
17.65
17.27
17.27
17.63
18.06
18.17
17.68
16.56
15.02
13.38
11.87
10.63
9.67
8.93
8.30
7.63
6.75
5.52
3.92
2.06
0.17
-1.51
-2.87
-3.99
-5.05
-6.26
-7.74
-9.45
-11.30
-13.22
-15.19
-17.24
-19.41
-21.69
-24.10
-26.68
-29.49
-32.52
-35.53
-38.04
-39.36
-38.80
-35.98
-31.00
-24.46
-17.25
-10.27
-4.18
0.75
4.55
7.40
9.50
10.96
11.86
12.33
12.52
12.60
12.70
12.84
12.98
13.08
13.16
13.34
13.74
14.42
15.33
16.29
17.06
17.48
17.50
17.16
16.53
15.67
14.57
13.24
11.69
9.96
8.16
6.35
4.65
3.13
1.79
0.60
-0.55
-1.80
-3.30
-5.12
-7.23
-9.50
-11.73
-13.75
-15.44
-16.77
-17.85
-18.87
-20.10
-21.84
-24.33
-27.52
-31.05
-34.12
-35.75
-35.10
-31.86
-26.37
-19.52
-12.43
-6.03
-0.81
3.22
6.24
8.47
10.07
11.05
11.43
11.33
10.91
10.38
9.91
9.59
9.45
9.50
9.69
9.98
10.27
10.52
10.71
10.86
11.03
11.19
11.26
11.10
10.57
9.62
8.33
6.87
5.39
3.95
2.56
1.13
-0.46
-2.26
-4.26
-6.37
-8.43
-10.27
-11.74
-12.82
-13.61
-14.38
-15.41
-16.95
-19.12
-21.82
-24.75
-27.43
-29.31
-29.82
-28.57
-25.42
-20.57
-14.58
-8.19
-2.18
2.88
6.72
9.35
10.94
11.68
11.67
10.97
9.70
8.04
6.35
4.98
4.19
4.08
4.51
5.31
6.27
7.33
8.49
9.70
10.81
11.55
11.64
10.96
9.65
8.07
6.62
5.51
4.68
3.81
2.53
0.63
-1.76
-4.30
-6.60
-8.45
-9.94
-11.36
-13.04
-15.19
-17.85
-20.89
-24.09
-27.20
-29.89
-31.72
-32.14
-30.73
-27.31
-22.09
-15.72
-9.07
-3.00
1.87
5.27
7.24
8.03
7.92
7.20
6.12
4.95
3.96
3.40
3.46
4.18
5.45
7.06
8.74
10.29
11.64
12.77
13.64
14.15
14.15
13.56
12.46
11.09
9.70
8.45
7.25
5.87
4.09
1.81
-0.83
-3.58
-6.24
-8.67
-10.85
-12.84
-14.71
-16.63
-18.89
-21.78
-25.44
-29.59
-33.46
-35.96
-36.20
-33.75
-28.90
-22.46
-15.38
-8.44
-2.09
3.45
8.04
11.48
13.66
14.60
14.60
14.08
13.50
13.16
13.12
13.26
13.46
13.63
13.74
13.84
13.92
14.01
14.07
14.12
14.15
14.14
14.03
13.69
12.96
11.69
9.79
7.27
4.27
1.04
-2.13
-4.95
-7.28
-9.16
-10.79
-12.53
-14.74
-17.62
-21.18
-25.16
-29.09
-32.39
-34.47
-34.86
-33.27
-29.66
-24.31
-17.79
-10.88
-4.40
1.02
5.06
7.73
9.28
10.10
10.45
10.55
10.51
10.43
10.45
10.67
11.14
11.87
12.79
13.88
15.09
16.37
17.56
18.44
18.80
18.50
17.59
16.20
14.54
12.74
10.88
8.98
7.05
5.11
3.13
1.02
-1.39
-4.30
-7.77
-11.75
-15.99
-20.11
-23.64
-26.09
-26.99
-25.93
-22.76
-17.64
-11.09
-3.94
2.91
8.73
13.09
15.95
17.60
18.42
18.69
18.59
18.10
17.25
16.17
15.10
14.34
14.07
14.32
14.91
15.61
16.24
16.78
17.26
17.72
18.08
18.14
17.61
16.30
14.15
11.32
8.11
4.90
1.99
-0.45
-2.46
-4.31
-6.35
-8.92
-12.18
-15.93
-19.63
-22.53
-23.84
-23.02
-19.97
-14.98
-8.69
-1.87
4.74
10.56
15.22
18.56
20.53
21.21
20.71
19.26
17.22
15.08
13.31
12.26
11.95
12.06
12.05
11.52
10.38
8.96
7.83
7.42
7.76
8.41
8.69
7.99
6.11
3.25
-0.10
-3.45
-6.50
-9.17
-11.54
-13.73
-15.90
-18.21
-20.81
-23.79
-27.01
-30.10
-32.42
-33.26
-32.12
-28.82
-23.60
-17.08
-10.02
-3.17
2.86
7.68
11.15
13.35
14.50
14.93
14.90
14.58
14.07
13.47
12.90
12.53
12.45
12.70
13.15
13.59
13.83
13.79
13.52
13.16
12.81
12.47
12.05
11.42
10.44
9.07
7.30
5.20
2.84
0.37
-2.05
-4.25
-6.13
-7.75
-9.33
-11.19
-13.61
-16.73
-20.42
-24.23
-27.52
-29.54
-29.68
-27.56
-23.21
-17.05
-9.84
-2.46
4.31
9.89
14.04
16.77
18.24
18.69
18.36
17.54
16.54
15.69
15.22
15.25
15.64
16.12
16.44
16.49
16.35
16.21
16.19
16.22
16.07
15.45
14.22
12.47
10.46
8.48
6.72
5.20
3.79
2.33
0.71
-1.12
-3.12
-5.21
-7.29
-9.26
-11.08
-12.80
-14.61
-16.78
-19.49
-22.71
-26.08
-28.99
-30.67
-30.48
-28.10
-23.59
-17.41
-10.30
-3.06
3.56
9.00
12.98
15.50
16.72
16.93
16.44
15.52
14.45
13.43
12.64
12.19
12.07
12.22
12.47
12.70
12.83
12.86
12.88
12.88
12.83
12.63
12.16
11.35
10.23
8.89
7.38
5.72
3.88
1.83
-0.43
-2.82
-5.24
-7.65
-10.06
-12.52
-15.08
-17.73
-20.47
-23.33
-26.29
-29.29
-32.07
-34.12
-34.79
-33.52
-30.13
-24.90
-18.55
-11.93
-5.75
-0.40
4.02
7.52
10.09
11.70
12.33
12.09
11.33
10.41
9.69
9.33
9.32
9.55
9.91
10.38
10.97
11.70
12.58
13.51
14.32
14.77
14.61
13.70
12.05
9.88
7.59
5.51
3.85
2.60
1.58
0.53
-0.77
-2.43
-4.43
-6.70
-9.11
-11.53
-13.82
-15.94
-17.93
-19.94
-22.18
-24.78
-27.78
-30.95
-33.85
-35.88
-36.40
-34.90
-31.22
-25.62
-18.72
-11.32
-4.19
2.14
7.42
11.59
14.66
16.74
17.91
18.34
18.29
17.98
17.62
17.27
16.96
16.71
16.58
16.67
17.05
17.66
18.36
18.96
19.30
19.29
18.92
18.19
17.10
15.62
13.78
11.64
9.38
7.18
5.25
3.67
2.42
1.27
-0.07
-1.90
-4.35
-7.32
-10.45
-13.33
-15.62
-17.30
-18.60
-19.95
-21.76
-24.26
-27.42
-31.00
-34.54
-37.52
-39.39
-39.67
-37.99
-34.21
-28.46
-21.22
-13.24
-5.41
1.45
6.78
10.40
12.48
13.36
13.41
12.92
12.06
10.98
9.85
8.87
8.19
7.90
7.97
8.36
9.01
9.91
11.02
12.20
13.24
13.91
14.01
13.48
12.32
10.60
8.42
5.95
3.37
0.87
-1.40
-3.45
-5.36
-7.25
-9.20
-11.15
-13.03
-14.80
-16.60
-18.69
-21.31
-24.58
-28.24
-31.75
-34.33
-35.20
-33.82
-30.06
-24.25
-17.11
-9.54
-2.36
3.84
8.80
12.56
15.31
17.21
18.33
18.66
18.23
17.14
15.66
14.16
12.96
12.29
12.20
12.60
13.33
14.25
15.21
16.12
16.85
17.23
17.08
16.28
14.78
12.70
10.26
7.68
5.14
2.69
0.27
-2.20
-4.78
-7.46
-10.17
-12.77
-15.23
-17.57
-19.92
-22.50
-25.54
-29.16
-33.29
-37.56
-41.33
-43.83
-44.36
-42.47
-38.14
-31.76
-24.05
-15.87
-8.00
-1.03
4.70
9.14
12.39
14.65
16.13
16.97
17.28
17.13
16.69
16.18
15.89
16.04
16.72
17.80
19.05
20.27
21.31
22.13
22.70
22.93
22.68
21.81
20.32
18.33
16.06
13.65
11.18
8.56
5.76
2.77
-0.26
-3.19
-5.90
-8.39
-10.78
-13.14
-15.51
-17.94
-20.53
-23.50
-27.13
-31.43
-36.03
-40.12
-42.55
-42.33
-38.93
-32.54
-23.97
-14.34
-4.76
3.91
11.14
16.68
20.53
22.85
23.96
24.28
24.26
24.22
24.35
24.64
24.99
25.28
25.42
25.39
25.23
25.04
24.96
25.15
25.66
26.43
27.14
27.42
26.85
25.21
22.49
18.98
15.12
11.36
8.02
5.16
2.67
0.35
-1.99
-4.43
-6.95
-9.53
-12.19
-14.97
-17.96
-21.31
-25.07
-29.21
-33.49
-37.42
-40.33
-41.48
-40.23
-36.31
-29.87
-21.47
-12.01
-2.47
6.20
13.31
18.47
21.71
23.34
23.82
23.56
22.78
21.54
19.90
18.05
16.36
15.26
15.04
15.67
16.84
18.12
19.11
19.59
19.52
18.97
18.05
16.84
15.40
13.76
11.96
9.99
7.84
5.50
2.97
0.37
-2.19
-4.62
-6.88
-9.05
-11.24
-13.58
-16.19
-19.16
-22.50
-26.02
-29.31
-31.71
-32.46
-30.93
-26.86
-20.53
-12.65
-4.17
3.95
11.06
16.76
20.99
23.79
25.27
25.59
24.91
23.48
21.63
19.70
18.02
16.80
16.12
15.92
16.09
16.49
16.99
17.50
17.92
18.14
18.01
17.38
16.15
14.33
12.10
9.68
7.36
5.29
3.44
1.55
-0.70
-3.50
-6.76
-10.12
-13.05
-15.21
-16.62
-17.72
-19.16
-21.48
-24.84
-28.83
-32.65
-35.31
-35.98
-34.23
-30.06
-23.92
-16.50
-8.61
-0.97
5.80
11.30
15.31
17.83
19.06
19.37
19.19
18.88
18.67
18.56
18.44
18.23
17.93
17.67
17.60
17.82
18.29
18.92
19.52
19.93
20.02
19.71
19.00
17.93
16.61
15.16
13.68
12.20
10.71
9.18
7.60
5.98
4.33
2.66
0.97
-0.70
-2.32
-3.89
-5.50
-7.27
-9.30
-11.59
-13.97
-16.19
-18.09
-19.63
-21.00
-22.44
-24.23
-26.51
-29.33
-32.53
-35.76
-38.45
-39.81
-39.08
-35.81
-30.03
-22.39
-13.97
-5.88
1.00
6.20
9.71
11.77
12.74
13.00
12.90
12.75
12.75
12.99
13.43
13.97
14.50
14.97
15.39
15.78
16.15
16.47
16.77
17.04
17.32
17.56
17.64
17.37
16.62
15.35
13.73
12.01
10.44
9.11
7.90
6.62
5.10
3.30
1.35
-0.52
-2.15
-3.54
-4.87
-6.36
-8.18
-10.36
-12.71
-14.94
-16.79
-18.11
-18.99
-19.71
-20.69
-22.35
-24.94
-28.48
-32.66
-36.83
-40.18
-41.90
-41.37
-38.36
-33.10
-26.15
-18.35
-10.55
-3.43
2.53
7.15
10.43
12.45
13.36
13.36
12.69
11.71
10.83
10.35
10.40
10.84
11.35
11.60
11.47
11.12
10.88
11.10
11.87
12.97
13.95
14.32
13.82
12.46
10.54
8.41
6.42
4.72
3.31
2.08
0.84
-0.60
-2.36
-4.44
-6.74
-9.07
-11.24
-13.11
-14.68
-16.12
-17.65
-19.57
-22.06
-25.17
-28.68
-32.14
-34.87
-36.17
-35.53
-32.73
-27.97
-21.77
-14.82
-7.78
-1.25
4.39
8.87
12.08
14.05
14.92
14.94
14.39
13.56
12.73
12.10
11.84
11.99
12.48
13.13
13.71
14.07
14.19
14.22
14.32
14.56
14.84
14.89
14.39
13.19
11.36
9.16
6.92
4.81
2.78
0.67
-1.70
-4.34
-7.10
-9.74
-12.09
-14.09
-15.80
-17.37
-18.92
-20.56
-22.41
-24.67
-27.51
-31.00
-34.93
-38.79
-41.80
-43.13
-42.15
-38.55
-32.52
-24.70
-16.08
-7.72
-0.55
4.88
8.52
10.72
12.02
12.96
13.86
14.78
15.62
16.24
16.57
16.65
16.56
16.38
16.19
16.09
16.21
16.64
17.44
18.47
19.50
20.17
20.21
19.47
18.03
16.06
13.79
11.42
9.12
6.98
5.05
3.27
1.47
-0.63
-3.21
-6.28
-9.61
-12.76
-15.36
-17.20
-18.46
-19.55
-21.02
-23.38
-26.85
-31.36
-36.41
-41.20
-44.70
-45.99
-44.43
-39.96
-33.07
-24.65
-15.72
-7.21
0.22
6.23
10.72
13.88
16.03
17.57
18.87
20.09
21.17
21.93
22.23
22.10
21.73
21.36
21.17
21.23
21.49
21.97
22.67
23.56
24.47
25.05
24.92
23.81
21.79
19.19
16.50
14.12
12.18
10.56
9.01
7.28
5.22
2.79
0.01
-3.05
-6.23
-9.30
-12.00
-14.18
-15.82
-17.18
-18.67
-20.77
-23.82
-27.79
-32.24
-36.31
-38.94
-39.19
-36.52
-30.96
-23.14
-14.06
-4.88
3.43
10.24
15.24
18.46
20.09
20.50
20.13
19.46
18.91
18.73
18.96
19.44
19.88
20.08
19.99
19.72
19.49
19.46
19.66
19.97
20.17
20.04
19.47
18.46
17.06
15.29
13.23
10.92
8.41
5.77
3.06
0.30
-2.43
-5.00
-7.27
-9.10
-10.54
-11.82
-13.37
-15.64
-18.84
-22.85
-27.15
-30.94
-33.34
-33.62
-31.38
-26.66
-19.93
-12.03
-3.90
3.61
9.90
14.74
18.16
20.35
21.57
22.02
21.86
21.26
20.37
19.39
18.50
17.88
17.66
17.86
18.40
19.07
19.66
20.01
20.03
19.78
19.28
18.50
17.33
15.70
13.67
11.44
9.27
7.36
5.73
4.19
2.50
0.41
-2.13
-4.99
-7.86
-10.45
-12.57
-14.30
-15.91
-17.83
-20.47
-23.95
-28.03
-32.12
-35.34
-36.83
-35.94
-32.42
-26.55
-19.05
-10.92
-3.19
3.38
8.45
12.07
14.60
16.45
17.92
19.17
20.22
21.02
21.49
21.56
21.21
20.52
19.66
18.91
18.56
18.79
19.55
20.59
21.58
22.14
22.04
21.21
19.72
17.77
15.64
13.60
11.85
10.46
9.32
8.20
6.84
5.05
2.82
0.27
-2.39
-5.00
-7.44
-9.70
-11.73
-13.52
-15.05
-16.41
-17.77
-19.33
-21.28
-23.64
-26.35
-29.22
-32.10
-34.80
-36.98
-38.18
-37.76
-35.23
-30.42
-23.74
-16.04
-8.40
-1.70
3.59
7.47
10.24
12.25
13.77
14.92
15.78
16.38
16.81
17.19
17.60
18.07
18.62
19.18
19.70
20.09
20.30
20.31
20.15
19.92
19.71
19.50
19.20
18.64
17.69
16.36
14.74
12.97
11.14
9.25
7.25
5.16
3.09
1.19
-0.40
-1.67
-2.79
-4.04
-5.65
-7.70
-10.09
-12.57
-14.88
-16.84
-18.40
-19.65
-20.77
-22.02
-23.67
-25.92
-28.82
-32.14
-35.36
-37.78
-38.66
-37.44
-33.94
-28.45
-21.61
-14.27
-7.27
-1.24
3.50
6.97
9.41
11.13
12.34
13.14
13.51
13.42
12.97
12.38
11.91
11.72
11.81
12.06
12.35
12.63
12.95
13.35
13.77
14.04
13.88
13.11
11.68
9.74
7.52
5.32
3.37
1.77
0.48
-0.63
-1.77
-3.12
-4.78
-6.74
-8.87
-11.01
-13.06
-14.97
-16.81
-18.69
-20.75
-23.10
-25.69
-28.34
-30.63
-32.02
-31.97
-30.06
-26.24
-20.80
-14.39
-7.83
-1.85
3.06
6.75
9.35
11.10
12.19
12.69
12.57
11.87
10.79
9.65
8.79
8.39
8.41
8.63
8.87
8.99
9.07
9.18
9.37
9.54
9.52
9.14
8.33
7.15
5.74
4.28
2.87
1.52
0.13
-1.47
-3.45
-5.85
-8.57
-11.32
-13.79
-15.77
-17.27
-18.59
-20.15
-22.34
-25.31
-28.91
-32.61
-35.71
-37.43
-37.15
-34.58
-29.85
-23.45
-16.17
-8.85
-2.14
3.62
8.36
12.19
15.14
17.19
18.27
18.40
17.82
16.94
16.18
15.84
15.94
16.33
16.80
17.21
17.53
17.82
18.06
18.19
18.09
17.71
17.06
16.21
15.27
14.20
12.94
11.35
9.34
6.94
4.25
1.42
-1.40
-4.14
-6.78
-9.33
-11.78
-14.09
-16.26
-18.32
-20.41
-22.74
-25.51
-28.79
-32.37
-35.77
-38.25
-39.09
-37.77
-34.17
-28.69
-22.03
-14.97
-8.12
-1.86
3.61
8.21
11.81
14.35
15.83
16.42
16.40
16.10
15.76
15.50
15.37
15.42
15.70
16.27
17.07
17.93
18.61
18.89
18.66
17.96
16.95
15.78
14.54
13.25
11.83
10.19
8.27
6.04
3.51
0.68
-2.34
-5.39
-8.26
-10.74
-12.75
-14.38
-15.91
-17.77
-20.36
-23.89
-28.25
-32.93
-37.10
-39.73
-39.93
-37.20
-31.61
-23.86
-15.04
-6.30
1.44
7.68
12.33
15.60
17.76
19.05
19.66
19.76
19.55
19.23
19.00
18.94
19.10
19.40
19.78
20.18
20.52
20.73
20.73
20.49
20.05
19.49
18.86
18.11
17.07
15.56
13.50
10.96
8.15
5.29
2.49
-0.26
-3.07
-5.97
-8.91
-11.77
-14.56
-17.44
-20.72
-24.55
-28.82
-32.97
-36.18
-37.59
-36.60
-33.04
-27.20
-19.72
-11.46
-3.31
3.98
9.92
14.36
17.49
19.67
21.32
22.66
23.72
24.38
24.53
24.20
23.54
22.84
22.29
21.98
21.88
21.88
21.96
22.11
22.39
22.73
22.93
22.64
21.56
19.57
16.84
13.78
10.83
8.28
6.16
4.26
2.27
-0.03
-2.71
-5.62
-8.55
-11.26
-13.60
-15.61
-17.47
-19.55
-22.17
-25.47
-29.28
-33.11
-36.26
-37.97
-37.69
-35.16
-30.49
-24.07
-16.51
-8.53
-0.84
5.95
11.42
15.38
17.89
19.16
19.53
19.37
19.02
18.74
18.65
18.74
18.88
18.98
18.98
18.93
18.95
19.10
19.37
19.61
19.63
19.24
18.33
16.94
15.18
13.26
11.30
9.40
7.52
5.58
3.47
1.18
-1.31
-3.91
-6.51
-9.01
-11.28
-13.29
-15.09
-16.91
-19.10
-21.95
-25.54
-29.56
-33.30
-35.86
-36.39
-34.40
-29.91
-23.48
-15.96
-8.36
-1.45
4.31
8.86
12.42
15.27
17.50
19.04
19.70
19.43
18.46
17.26
16.37
16.13
16.54
17.33
18.11
18.63
18.84
18.86
18.79
18.66
18.35
17.72
16.68
15.24
13.51
11.62
9.70
7.80
5.96
4.16
2.30
0.27
-2.02
-4.61
-7.42
-10.27
-12.93
-15.21
-17.08
-18.65
-20.14
-21.87
-24.11
-27.05
-30.67
-34.67
-38.44
-41.22
-42.24
-40.95
-37.22
-31.33
-23.91
-15.76
-7.67
-0.28
5.98
10.84
14.27
16.40
17.49
17.90
17.95
17.85
17.72
17.57
17.35
17.06
16.75
16.52
16.51
16.80
17.43
18.26
19.09
19.61
19.51
18.57
16.71
14.07
11.00
8.01
5.52
3.73
2.53
1.51
0.15
-1.93
-4.81
-8.28
-11.85
-15.06
-17.56
-19.21
-20.16
-20.78
-21.58
-23.11
-25.72
-29.39
-33.65
-37.57
-40.07
-40.23
-37.57
-32.16
-24.58
-15.72
-6.60
1.83
8.82
13.91
17.01
18.47
18.90
18.96
19.14
19.65
20.39
21.15
21.71
21.99
22.05
21.99
21.90
21.83
21.78
21.70
21.53
21.18
20.59
19.74
18.66
17.40
16.01
14.44
12.59
10.34
7.63
4.52
1.12
-2.45
-6.12
-9.80
-13.33
-16.51
-19.11
-21.11
-22.70
-24.27
-26.18
-28.59
-31.31
-33.89
-35.77
-36.44
-35.54
-32.91
-28.60
-22.84
-16.11
-9.06
-2.39
3.30
7.71
10.82
12.88
14.16
14.96
15.50
15.90
16.22
16.40
16.34
15.89
14.97
13.65
12.13
10.67
9.49
8.65
8.09
7.70
7.34
6.96
6.56
6.12
5.56
4.73
3.46
1.68
-0.66
-3.46
-6.57
-9.85
-13.15
-16.31
-19.20
-21.76
-23.98
-26.04
-28.19
-30.79
-34.10
-38.08
-42.31
-45.96
-48.02
-47.64
-44.43
-38.60
-30.87
-22.16
-13.34
-5.08
2.23
8.32
13.07
16.48
18.74
20.17
21.15
22.00
22.81
23.50
23.84
23.63
22.77
21.31
19.43
17.42
15.62
14.28
13.58
13.54
13.99
14.67
15.21
15.20
14.29
12.24
9.04
4.97
0.51
-3.79
-7.53
-10.57
-13.11
-15.54
-18.26
-21.54
-25.39
-29.49
-33.22
-35.81
-36.51
-34.82
-30.69
-24.54
-17.17
-9.46
-2.16
4.26
9.56
13.67
16.57
18.23
18.76
18.38
17.50
16.55
15.85
15.60
15.77
16.29
17.03
17.92
18.86
19.73
20.36
20.59
20.31
19.54
18.34
16.82
15.07
13.11
10.96
8.59
5.99
3.15
0.11
-3.06
-6.19
-9.12
-11.74
-14.12
-16.55
-19.39
-22.85
-26.75
-30.43
-32.90
-33.15
-30.58
-25.15
-17.43
-8.39
0.93
9.66
17.18
23.06
27.09
29.22
29.61
28.61
26.76
24.52
22.27
20.21
18.44
17.06
16.19
15.87
16.05
16.52
17.00
17.26
17.21
16.94
16.51
15.92
15.00
13.55
11.43
8.72
5.68
2.62
-0.21
-2.78
-5.25
-7.87
-10.79
-14.04
-17.48
-20.93
-24.23
-27.32
-30.07
-32.22
-33.32
-32.78
-30.18
-25.40
-18.82
-11.21
-3.53
3.41
9.11
13.45
16.50
18.33
18.97
18.38
16.63
14.05
11.18
8.61
6.77
5.75
5.36
5.28
5.32
5.53
6.05
7.00
8.24
9.41
10.06
9.85
8.73
6.89
4.62
2.23
-0.09
-2.25
-4.25
-6.12
-7.93
-9.75
-11.68
-13.86
-16.35
-19.20
-22.32
-25.47
-28.20
-29.94
-30.16
-28.54
-25.13
-20.35
-14.85
-9.26
-4.02
0.62
4.53
7.57
9.53
10.23
9.69
8.13
5.99
3.68
1.52
-0.38
-2.03
-3.42
-4.37
-4.64
-3.99
-2.38
-0.05
2.54
4.91
6.75
8.00
8.84
9.45
9.95
10.32
10.45
10.31
9.97
9.56
9.15
8.61
7.63
5.92
3.41
0.45
-2.29
-3.99
-3.95
-1.88
2.04
7.29
13.13
18.85
23.87
27.81
30.44
31.64
31.40
29.83
27.17
23.83
20.28
16.97
14.27
12.30
11.04
10.31
9.85
9.38
8.75
7.89
6.90
5.96
5.16
4.45
3.55
2.10
-0.19
-3.31
-6.92
-10.46
-13.42
-15.60
-17.15
-18.59
-20.46
-23.11
-26.53
-30.23
-33.43
-35.29
-35.17
-32.81
-28.42
-22.53
-15.85
-9.09
-2.83
2.46
6.40
8.73
9.36
8.50
6.54
4.05
1.58
-0.55
-2.19
-3.37
-4.13
-4.51
-4.51
-4.18
-3.60
-2.89
-2.16
-1.55
-1.14
-1.10
-1.60
-2.77
-4.68
-7.23
-10.16
-13.14
-15.89
-18.27
-20.29
-22.10
-23.77
-25.22
-26.15
-26.06
-24.41
-20.90
-15.55
-8.86
-1.62
5.25
10.97
15.12
17.70
19.01
19.50
19.53
19.24
18.61
17.55
16.03
14.23
12.42
10.89
9.82
9.25
9.05
9.05
9.05
8.91
8.56
7.97
7.09
5.89
4.34
2.45
0.23
-2.32
-5.16
-8.28
-11.64
-15.14
-18.56
-21.56
-23.63
-24.17
-22.67
-18.96
-13.34
-6.62
0.17
6.07
10.49
13.40
15.12
16.07
16.55
16.57
16.01
14.76
12.88
10.62
8.33
6.34
4.88
4.06
3.90
4.30
5.05
5.86
6.38
6.38
5.73
4.49
2.83
0.94
-0.99
-2.85
-4.63
-6.42
-8.42
-10.85
-13.80
-17.13
-20.34
-22.68
-23.36
-21.89
-18.22
-12.87
-6.66
-0.50
4.97
9.44
12.92
15.55
17.47
18.70
19.24
19.09
18.35
17.23
15.96
14.75
13.72
12.96
12.45
12.20
12.14
12.18
12.20
12.03
11.55
10.68
9.36
7.63
5.58
3.36
1.18
-0.80
-2.58
-4.25
-6.06
-8.25
-10.95
-14.14
-17.65
-21.26
-24.59
-27.18
-28.49
-28.01
-25.54
-21.20
-15.54
-9.32
-3.25
2.18
6.74
10.37
13.07
14.81
15.59
15.48
14.68
13.54
12.40
11.52
11.07
11.07
11.46
12.13
12.91
13.67
14.26
14.57
14.56
14.24
13.69
12.97
12.14
11.17
10.02
8.66
7.19
5.76
4.56
3.59
2.66
1.41
-0.45
-2.96
-5.83
-8.53
-10.57
-11.71
-12.08
-12.05
-12.09
-12.60
-13.86
-15.96
-18.77
-21.92
-24.75
-26.49
-26.46
-24.30
-20.13
-14.52
-8.25
-2.14
3.19
7.36
10.24
11.91
12.57
12.52
12.11
11.58
11.11
10.74
10.47
10.23
9.98
9.67
9.29
8.93
8.68
8.68
9.01
9.64
10.46
11.27
11.89
12.15
11.98
11.32
10.23
8.80
7.24
5.71
4.38
3.30
2.39
1.55
0.68
-0.21
-1.04
-1.76
-2.41
-3.10
-4.00
-5.22
-6.71
-8.36
-9.96
-11.41
-12.72
-14.00
-15.41
-16.99
-18.62
-19.93
-20.42
-19.63
-17.31
-13.61
-8.97
-4.07
0.47
4.21
6.98
8.81
9.86
10.30
10.28
9.94
9.39
8.78
8.24
7.85
7.65
7.60
7.66
7.77
7.90
8.09
8.35
8.72
9.18
9.61
9.87
9.84
9.49
8.86
8.06
7.20
6.36
5.56
4.76
3.93
3.00
1.96
0.87
-0.19
-1.14
-1.97
-2.75
-3.57
-4.55
-5.73
-7.18
-8.94
-11.04
-13.46
-16.02
-18.41
-20.22
-21.06
-20.72
-19.21
-16.72
-13.53
-9.96
-6.31
-2.88
0.07
2.34
3.85
4.65
4.86
4.54
3.73
2.53
1.12
-0.16
-0.91
-0.85
0.05
1.50
3.05
4.30
5.04
5.30
5.23
5.01
4.71
4.36
3.97
3.62
3.37
3.27
3.27
3.21
2.95
2.34
1.35
0.08
-1.30
-2.58
-3.64
-4.46
-5.10
-5.70
-6.33
-7.02
-7.78
-8.67
-9.85
-11.45
-13.58
-16.18
-19.06
-21.95
-24.56
-26.66
-28.06
-28.52
-27.80
-25.73
-22.33
-17.89
-12.95
-8.13
-3.94
-0.68
1.61
3.03
3.74
3.86
3.46
2.63
1.59
0.65
0.18
0.42
1.36
2.76
4.23
5.44
6.23
6.73
7.13
7.62
8.22
8.84
9.33
9.60
9.67
9.60
9.46
9.22
8.84
8.25
7.44
6.44
5.30
4.10
2.92
1.83
0.86
-0.00
-0.89
-1.99
-3.47
-5.36
-7.51
-9.68
-11.63
-13.21
-14.48
-15.61
-16.84
-18.39
-20.42
-22.99
-25.97
-29.02
-31.60
-33.10
-32.95
-30.90
-27.06
-21.86
-15.91
-9.85
-4.17
0.75
4.67
7.54
9.40
10.42
10.84
10.93
10.88
10.87
11.02
11.40
12.03
12.88
13.85
14.82
15.71
16.48
17.14
17.65
18.01
18.15
18.05
17.69
17.08
16.24
15.18
13.93
12.54
11.08
9.66
8.32
7.08
5.86
4.56
3.13
1.56
-0.05
-1.59
-3.00
-4.29
-5.57
-7.01
-8.64
-10.40
-12.12
-13.65
-14.94
-16.19
-17.69
-19.69
-22.29
-25.34
-28.46
-31.17
-32.99
-33.47
-32.27
-29.24
-24.46
-18.37
-11.66
-5.09
0.67
5.27
8.68
11.08
12.68
13.58
13.83
13.49
12.75
11.90
11.24
10.91
10.86
10.90
10.90
10.83
10.88
11.25
12.06
13.29
14.69
15.94
16.69
16.68
15.78
14.07
11.80
9.33
7.01
5.08
3.61
2.49
1.56
0.66
-0.29
-1.35
-2.60
-4.15
-6.08
-8.39
-10.88
-13.26
-15.27
-16.79
-17.90
-18.93
-20.27
-22.30
-25.22
-28.95
-33.09
-36.95
-39.70
-40.55
-39.03
-35.09
-29.22
-22.21
-14.98
-8.23
-2.44
2.23
5.76
8.21
9.69
10.34
10.38
10.08
9.68
9.38
9.26
9.39
9.83
10.59
11.65
12.85
14.01
14.96
15.64
16.11
16.46
16.69
16.70
16.34
15.48
14.17
12.61
11.07
9.76
8.73
7.87
7.00
5.89
4.39
2.45
0.09
-2.54
-5.24
-7.83
-10.20
-12.39
-14.53
-16.87
-19.63
-22.90
-26.65
-30.64
-34.49
-37.65
-39.51
-39.41
-36.89
-31.86
-24.69
-16.24
-7.58
0.30
6.73
11.55
15.00
17.49
19.38
20.90
22.03
22.72
22.96
22.83
22.54
22.35
22.44
22.90
23.68
24.65
25.71
26.75
27.74
28.56
29.06
29.01
28.27
26.85
24.97
22.95
21.11
19.55
18.17
16.72
14.96
12.81
10.38
7.90
5.56
3.43
1.45
-0.59
-2.81
-5.30
-7.99
-10.72
-13.34
-15.75
-17.99
-20.21
-22.67
-25.66
-29.36
-33.67
-38.12
-41.83
-43.73
-42.91
-38.94
-32.09
-23.21
-13.46
-3.91
4.64
11.79
17.38
21.42
24.00
25.35
25.81
25.82
25.71
25.68
25.70
25.66
25.52
25.33
25.28
25.52
26.05
26.76
27.44
27.94
28.15
28.03
27.55
26.65
25.31
23.55
21.48
19.25
17.00
14.85
12.83
10.95
9.17
7.46
5.75
3.98
2.04
-0.16
-2.65
-5.41
-8.32
-11.23
-13.99
-16.55
-18.94
-21.36
-24.12
-27.46
-31.45
-35.85
-40.04
-43.24
-44.68
-43.82
-40.49
-34.91
-27.59
-19.19
-10.46
-2.09
5.24
11.06
15.12
17.50
18.61
18.97
19.05
19.08
19.07
18.93
18.69
18.51
18.66
19.32
20.41
21.64
22.65
23.19
23.26
23.06
22.79
22.50
22.06
21.21
19.81
17.88
15.67
13.46
11.45
9.64
7.91
6.11
4.12
1.94
-0.39
-2.82
-5.31
-7.82
-10.31
-12.66
-14.78
-16.61
-18.20
-19.74
-21.52
-23.85
-26.92
-30.65
-34.65
-38.18
-40.33
-40.27
-37.54
-32.25
-25.04
-16.85
-8.65
-1.21
5.05
9.97
13.58
15.95
17.28
17.80
17.80
17.56
17.32
17.17
17.15
17.24
17.41
17.68
18.03
18.42
18.82
19.22
19.66
20.15
20.60
20.79
20.45
19.41
17.69
15.54
13.34
11.38
9.76
8.30
6.73
4.79
2.41
-0.35
-3.29
-6.19
-8.85
-11.13
-12.98
-14.45
-15.78
-17.36
-19.63
-22.87
-26.98
-31.40
-35.20
-37.34
-37.07
-34.11
-28.73
-21.68
-13.87
-6.21
0.61
6.17
10.29
13.03
14.57
15.22
15.30
15.16
15.04
15.11
15.39
15.81
16.20
16.45
16.54
16.56
16.64
16.89
17.27
17.66
17.88
17.78
17.31
16.50
15.39
14.05
12.47
10.66
8.69
6.65
4.71
3.04
1.72
0.70
-0.25
-1.41
-3.04
-5.20
-7.77
-10.50
-13.08
-15.34
-17.24
-18.89
-20.48
-22.25
-24.38
-27.01
-30.06
-33.21
-35.81
-37.09
-36.36
-33.28
-28.01
-21.14
-13.51
-5.98
0.76
6.29
10.43
13.25
14.94
15.82
16.20
16.36
16.51
16.77
17.21
17.85
18.62
19.38
19.96
20.26
20.29
20.23
20.29
20.55
20.91
21.10
20.81
19.92
18.52
16.88
15.29
13.87
12.59
11.28
9.81
8.12
6.32
4.57
2.98
1.59
0.37
-0.80
-2.01
-3.33
-4.78
-6.36
-8.04
-9.73
-11.30
-12.66
-13.77
-14.82
-16.13
-18.10
-20.93
-24.46
-28.10
-31.02
-32.37
-31.62
-28.68
-23.89
-17.85
-11.31
-4.97
0.59
4.99
8.09
9.98
10.86
10.98
10.62
10.04
9.58
9.54
10.07
11.06
12.14
12.82
12.80
12.11
11.11
10.31
10.03
10.25
10.66
10.86
10.59
9.86
8.84
7.73
6.68
5.78
5.00
4.28
3.51
2.54
1.27
-0.28
-1.96
-3.50
-4.67
-5.46
-6.07
-6.84
-8.05
-9.79
-11.95
-14.22
-16.35
-18.17
-19.66
-20.93
-22.18
-23.63
-25.53
-27.90
-30.53
-32.91
-34.30
-33.99
-31.53
-26.94
-20.74
-13.84
-7.23
-1.71
2.29
4.83
6.22
6.90
7.20
7.28
7.20
6.99
6.80
6.80
7.18
7.95
8.94
9.86
10.43
10.53
10.29
9.94
9.74
9.82
10.10
10.30
10.14
9.46
8.31
6.96
5.72
4.82
4.24
3.78
3.19
2.31
1.16
-0.16
-1.50
-2.81
-4.10
-5.39
-6.66
-7.85
-8.90
-9.82
-10.77
-11.98
-13.68
-15.95
-18.67
-21.43
-23.60
-24.48
-23.50
-20.48
-15.68
-9.81
-3.74
1.73
6.13
9.34
11.47
12.71
13.24
13.17
12.68
12.06
11.64
11.67
12.12
12.74
13.13
13.00
12.38
11.57
10.97
10.89
11.33
12.06
12.70
12.98
12.79
12.17
11.23
10.07
8.74
7.29
5.82
4.42
3.15
2.05
1.13
0.33
-0.44
-1.27
-2.30
-3.62
-5.22
-7.01
-8.81
-10.43
-11.80
-13.02
-14.33
-15.94
-17.97
-20.37
-22.92
-25.30
-27.12
-28.00
-27.61
-25.72
-22.36
-17.77
-12.43
-6.94
-1.81
2.55
5.96
8.35
9.75
10.30
10.19
9.75
9.27
8.99
8.98
9.20
9.51
9.81
10.02
10.11
10.05
9.81
9.46
9.05
8.71
8.48
8.34
8.10
7.60
6.72
5.54
4.28
3.16
2.32
1.64
0.90
-0.13
-1.51
-3.12
-4.74
-6.17
-7.39
-8.51
-9.68
-10.99
-12.43
-13.88
-15.28
-16.60
-17.89
-19.23
-20.65
-22.15
-23.77
-25.56
-27.58
-29.73
-31.66
-32.79
-32.50
-30.36
-26.35
-20.88
-14.68
-8.47
-2.80
2.05
6.02
9.11
11.33
12.70
13.31
13.36
13.10
12.78
12.58
12.59
12.81
13.18
13.67
14.19
14.70
15.14
15.53
15.86
16.13
16.26
16.20
15.89
15.32
14.54
13.58
12.41
11.00
9.31
7.38
5.40
3.60
2.16
1.10
0.27
-0.53
-1.51
-2.74
-4.20
-5.84
-7.59
-9.41
-11.19
-12.77
-14.00
-14.91
-15.74
-16.90
-18.82
-21.67
-25.15
-28.58
-31.08
-31.89
-30.61
-27.30
-22.37
-16.47
-10.27
-4.38
0.69
4.57
7.07
8.13
7.92
6.69
4.83
2.70
0.65
-1.04
-2.22
-2.80
-2.71
-1.96
-0.54
1.49
3.99
6.72
9.39
11.76
13.70
15.26
16.68
18.29
20.39
23.08
26.26
29.63
32.86
35.67
37.96
39.75
41.12
42.14
42.85
43.24
43.29
42.97
42.15
40.52
37.68
33.15
26.67
18.36
8.80
-1.11
-10.30
-17.95
-23.63
-27.45
-29.96
-31.94
-34.11
-37.00
-40.81
-45.47
-50.72
-56.31
-61.97
-67.52
-72.75
-77.38
-80.89
-82.57
-81.52
-76.85
-67.91
-54.50
-36.94
-15.99
7.29
31.68
55.84
78.41
98.15
114.20
126.34
135.04
141.32
146.28
150.58
154.09
155.89
154.65
149.19
138.95
124.26
106.34
86.90
67.62
49.61
33.02
17.12
0.76
-16.86
-35.66
-54.44
-71.35
-84.58
-93.08
-96.75
-96.29
-92.74
-87.29
-81.15
-75.68
-72.21
-71.66
-74.17
-79.00
-84.86
-90.58
-95.58
-99.88
-103.64
-106.60
-107.79
-105.93
-100.18
-90.78
-79.17
-67.32
-56.67
-47.39
-38.29
-27.53
-13.80
2.78
20.51
36.83
49.58
57.98
62.96
66.47
70.48
75.86
81.97
87.16
89.50
87.69
81.51
71.59
59.03
44.81
29.56
13.60
-2.85
-19.42
-35.55
-50.46
-63.42
-73.84
-81.31
-85.83
-87.77
-87.97
-87.58
-87.74
-89.11
-91.56
-94.06
-95.04
-92.93
-86.64
-75.99
-61.95
-46.76
-33.60
-25.67
-24.81
-30.15
-37.75
-41.69
-36.50
-19.81
6.32
36.02
62.14
79.17
85.19
81.93
73.50
64.29
57.60
55.01
56.67
61.94
69.70
78.55
86.74
92.23
92.97
87.47
75.37
57.81
37.15
16.27
-2.31
-17.29
-28.62
-37.10
-43.69
-48.86
-52.57
-54.38
-53.81
-50.59
-44.75
-36.72
-27.37
-17.85
-9.30
-2.50
2.41
5.86
8.61
11.26
13.99
16.59
18.87
20.85
22.85
25.25
28.22
31.73
35.56
39.55
43.64
47.94
52.71
57.99
63.77
69.85
76.31
83.60
92.47
103.73
117.94
135.23
154.73
174.79
192.80
206.04
212.21
209.78
198.08
177.38
148.86
114.19
76.05
37.34
1.26
-29.69
-55.21
-77.97
-103.29
-133.74
-167.97
-200.70
-226.55
-241.89
-245.81
-239.99
-227.46
-210.80
-191.30
-172.87
-154.86
-138.25
-124.86
-115.65
-110.00
-105.99
-101.44
-94.94
-86.99
-79.09
-73.02
-70.62
-72.18
-76.05
-78.96
-76.81
-65.87
-44.62
-14.29
20.27
52.47
76.41
88.60
88.74
79.07
63.13
44.23
25.06
7.33
-7.64
-18.57
-24.64
-25.92
-23.39
-18.46
-12.39
-5.90
0.52
6.40
11.31
14.94
17.27
18.62
19.44
19.98
20.26
20.20
19.97
20.13
21.23
23.35
25.76
27.25
26.84
24.41
20.91
17.73
15.80
14.96
14.16
12.20
8.62
4.03
-0.43
-3.95
-6.56
-8.88
-11.44
-14.06
-15.93
-16.39
-15.63
-14.60
-14.10
-13.76
-11.89
-6.63
2.41
13.20
22.08
25.98
24.66
21.36
21.23
28.41
43.51
63.13
81.64
94.01
98.10
95.21
89.00
83.53
81.54
83.70
88.78
94.44
98.39
99.11
96.19
90.08
81.62
71.53
60.30
48.36
36.42
25.53
16.80
10.86
7.55
6.01
5.02
3.64
1.53
-1.11
-3.74
-5.90
-7.35
-8.19
-8.77
-9.61
-11.28
-14.18
-18.41
-23.61
-29.03
-33.75
-36.96
-38.29
-37.96
-36.63
-35.20
-34.47
-34.92
-36.61
-39.36
-42.77
-46.39
-49.58
-51.59
-51.64
-49.18
-44.08
-36.74
-28.02
-18.88
-10.15
-2.32
4.37
9.86
14.13
17.21
19.16
20.16
20.40
20.08
19.39
18.48
17.54
16.73
16.24
16.18
16.53
17.18
17.92
18.53
18.74
18.38
17.35
15.75
13.90
12.18
10.94
10.28
9.97
9.51
8.36
6.18
3.01
-0.77
-4.63
-8.11
-11.01
-13.45
-15.71
-18.10
-20.83
-23.89
-27.17
-30.40
-33.20
-35.05
-35.38
-33.73
-29.92
-24.24
-17.35
-10.16
-3.47
2.23
6.86
10.60
13.70
16.34
18.53
20.18
21.21
21.58
21.37
20.74
19.91
19.16
18.73
18.80
19.38
20.27
21.17
21.78
21.94
21.63
21.01
20.22
19.38
18.46
17.33
15.89
14.03
11.71
8.95
5.79
2.38
-1.07
-4.22
-6.71
-8.31
-9.03
-9.23
-9.56
-10.70
-13.11
-16.77
-21.07
-24.92
-27.00
-26.18
-21.93
-14.51
-5.01
4.89
13.46
19.37
22.18
22.37
21.10
19.66
18.86
18.85
19.10
18.89
17.74
15.62
12.97
10.40
8.35
7.00
6.29
6.16
6.51
7.21
8.01
8.42
7.96
6.32
3.62
0.32
-2.90
-5.46
-7.04
-7.64
-7.53
-7.12
-6.86
-7.23
-8.51
-10.78
-13.81
-17.17
-20.39
-23.16
-25.39
-27.20
-28.74
-30.07
-31.07
-31.50
-31.07
-29.50
-26.66
-22.53
-17.33
-11.51
-5.64
-0.29
4.14
7.59
10.20
12.23
13.82
14.88
15.15
14.37
12.52
9.90
7.08
4.69
3.17
2.66
3.00
3.88
5.01
6.17
7.25
8.18
8.87
9.24
9.26
8.90
8.17
7.04
5.42
3.24
0.51
-2.64
-6.01
-9.32
-12.29
-14.72
-16.48
-17.58
-18.27
-18.97
-20.10
-21.91
-24.15
-26.08
-26.72
-25.17
-21.11
-14.89
-7.48
-0.04
6.45
11.46
14.94
17.10
18.20
18.37
17.63
16.05
13.88
11.55
9.57
8.32
7.92
8.23
8.95
9.83
10.78
11.81
12.89
13.81
14.14
13.37
11.17
7.60
3.19
-1.16
-4.44
-5.89
-5.29
-3.18
-0.77
0.40
-1.05
-5.78
-13.48
-22.85
-31.96
-38.86
-42.04
-40.87
-35.59
-27.21
-17.21
-7.29
0.99
6.52
8.94
8.74
7.14
5.64
5.52
7.44
11.25
16.17
21.01
24.52
25.67
23.93
19.46
13.22
6.78
1.91
0.00
1.58
6.11
12.22
18.10
22.05
22.79
19.80
13.40
4.76
-4.31
-11.75
-15.88
-16.01
-12.68
-7.60
-3.07
-1.21
-3.44
-9.99
-19.84
-30.89
-40.50
-46.08
-45.88
-39.51
-28.17
-14.37
-1.17
8.71
13.64
13.56
9.85
4.76
0.74
-0.42
2.00
7.51
14.61
21.25
25.46
25.87
22.20
15.39
7.45
0.86
-2.27
-0.84
4.79
12.89
20.94
26.40
27.46
23.55
15.45
5.13
-4.84
-12.01
-14.77
-12.87
-7.51
-0.92
4.32
6.02
3.03
-4.42
-14.87
-25.98
-35.20
-40.48
-40.78
-36.38
-28.76
-20.10
-12.67
-8.12
-6.92
-8.29
-10.47
-11.37
-9.30
-3.65
4.88
14.47
22.80
27.71
27.95
23.52
15.75
6.91
-0.38
-3.91
-2.61
3.12
11.50
19.93
25.83
27.48
24.44
17.68
9.21
1.46
-3.47
-4.45
-1.69
3.35
8.43
11.31
10.49
5.68
-2.11
-10.95
-18.62
-23.26
-24.06
-21.39
-16.74
-12.21
-9.85
-10.94
-15.59
-22.55
-29.65
-34.50
-35.27
-31.30
-23.23
-12.70
-1.77
7.74
14.64
18.57
19.88
19.39
18.05
16.75
16.05
16.18
17.03
18.27
19.47
20.22
20.15
18.97
16.59
13.16
9.12
5.17
2.07
0.36
0.15
1.11
2.53
3.67
3.93
3.01
0.98
-1.89
-5.23
-8.67
-11.94
-14.84
-17.24
-19.05
-20.29
-21.11
-21.83
-22.88
-24.58
-27.02
-29.87
-32.38
-33.60
-32.67
-29.23
-23.47
-16.15
-8.27
-0.78
5.64
10.72
14.45
17.00
18.53
19.17
19.00
18.09
16.61
14.81
13.02
11.54
10.64
10.44
10.90
11.78
12.74
13.43
13.61
13.20
12.32
11.21
10.08
9.03
7.94
6.59
4.79
2.48
-0.15
-2.78
-5.13
-7.07
-8.69
-10.24
-12.00
-14.20
-16.91
-19.96
-22.94
-25.28
-26.33
-25.62
-22.97
-18.62
-13.15
-7.28
-1.67
3.26
7.32
10.48
12.78
14.17
14.57
13.97
12.49
10.41
8.12
6.02
4.38
3.35
2.94
3.08
3.66
4.51
5.41
6.14
6.50
6.43
5.95
5.18
4.19
3.02
1.64
0.04
-1.75
-3.68
-5.71
-7.86
-10.17
-12.72
-15.48
-18.35
-21.22
-23.86
-26.04
-27.38
-27.48
-26.01
-22.83
-18.14
-12.44
-6.35
-0.45
4.86
9.37
12.93
15.50
17.01
17.45
16.90
15.52
13.59
11.49
9.60
8.33
7.89
8.22
9.06
9.94
10.44
10.37
9.78
8.91
7.99
7.13
6.22
5.12
3.66
1.82
-0.33
-2.62
-4.93
-7.19
-9.44
-11.79
-14.34
-17.17
-20.28
-23.61
-27.00
-30.14
-32.62
-33.96
-33.70
-31.56
-27.57
-22.08
-15.64
-8.90
-2.39
3.51
8.57
12.59
15.46
17.11
17.58
17.14
16.14
14.98
13.97
13.29
12.97
12.99
13.24
13.64
14.08
14.51
14.93
15.37
15.78
15.98
15.71
14.72
12.93
10.53
7.87
5.35
3.15
1.24
-0.61
-2.59
-4.83
-7.30
-9.96
-12.78
-15.86
-19.25
-22.93
-26.73
-30.31
-33.23
-34.97
-35.04
-33.12
-29.16
-23.46
-16.62
-9.38
-2.46
3.60
8.48
12.12
14.57
16.03
16.68
16.76
16.46
15.92
15.24
14.52
13.94
13.67
13.89
14.65
15.82
17.11
18.15
18.61
18.30
17.27
15.73
14.02
12.38
10.91
9.52
8.00
6.21
4.11
1.83
-0.49
-2.71
-4.84
-6.94
-9.13
-11.51
-14.17
-17.18
-20.50
-23.94
-27.07
-29.27
-29.97
-28.78
-25.65
-20.90
-15.03
-8.63
-2.25
3.61
8.55
12.33
14.90
16.47
17.38
17.97
18.43
18.73
18.73
18.34
17.70
17.09
16.92
17.42
18.58
20.04
21.25
21.67
20.96
19.15
16.58
13.78
11.24
9.21
7.67
6.34
4.93
3.19
1.07
-1.38
-4.00
-6.63
-9.15
-11.48
-13.55
-15.38
-17.05
-18.76
-20.78
-23.34
-26.51
-29.98
-33.15
-35.08
-34.92
-32.15
-26.85
-19.71
-11.81
-4.20
2.33
7.44
11.13
13.52
14.80
15.16
14.82
14.09
13.27
12.61
12.22
12.05
12.02
12.05
12.11
12.18
12.24
12.24
12.20
12.11
12.01
11.82
11.38
10.41
8.69
6.13
2.89
-0.71
-4.21
-7.24
-9.56
-11.15
-12.19
-12.98
-13.95
-15.47
-17.77
-20.85
-24.35
-27.68
-30.07
-30.85
-29.58
-26.17
-20.89
-14.32
-7.20
-0.33
5.65
10.35
13.66
15.76
16.97
17.58
17.77
17.61
17.12
16.41
15.73
15.35
15.43
15.91
16.46
16.74
16.49
15.75
14.75
13.81
13.07
12.42
11.56
10.19
8.15
5.57
2.79
0.20
-1.90
-3.46
-4.69
-6.00
-7.82
-10.45
-13.91
-17.95
-22.11
-25.80
-28.49
-29.78
-29.43
-27.46
-24.10
-19.77
-15.01
-10.32
-6.01
-2.15
1.50
5.24
9.30
13.65
17.87
21.27
23.03
22.58
19.86
15.53
10.81
7.19
5.90
7.47
11.49
16.79
21.80
25.08
25.70
23.40
18.61
12.28
5.70
0.20
-3.09
-3.61
-1.53
2.13
5.75
7.56
6.19
1.15
-6.92
-16.41
-25.23
-31.44
-33.87
-32.35
-27.72
-21.47
-15.21
-10.20
-7.04
-5.54
-4.91
-4.06
-1.96
1.95
7.57
14.10
20.19
24.38
25.51
23.25
18.21
11.94
6.36
3.23
3.52
7.10
12.77
18.68
22.93
24.14
21.89
16.81
10.40
4.50
0.68
-0.22
1.64
5.17
8.77
10.82
10.17
6.40
-0.01
-7.82
-15.36
-20.98
-23.53
-22.80
-19.69
-15.87
-13.21
-13.09
-15.88
-20.73
-25.94
-29.50
-29.70
-25.69
-17.67
-6.93
4.52
14.42
20.93
23.12
21.23
16.61
11.20
6.93
5.15
6.29
9.84
14.57
18.94
21.52
21.43
18.58
13.80
8.56
4.57
3.15
4.69
8.57
13.30
17.08
18.45
16.78
12.41
6.52
0.63
-3.86
-6.05
-5.83
-3.83
-1.23
0.57
0.43
-2.24
-7.18
-13.44
-19.66
-24.55
-27.35
-27.99
-27.07
-25.52
-24.23
-23.72
-24.00
-24.58
-24.64
-23.24
-19.69
-13.81
-6.08
2.40
10.17
15.82
18.42
17.76
14.48
9.84
5.38
2.47
1.94
3.77
7.13
10.65
12.95
13.09
10.97
7.28
3.30
0.33
-0.66
0.61
3.70
7.56
10.89
12.44
11.41
7.66
1.80
-4.92
-10.97
-14.97
-16.16
-14.66
-11.47
-8.20
-6.52
-7.61
-11.83
-18.51
-26.16
-32.81
-36.62
-36.36
-31.81
-23.85
-14.23
-5.08
1.80
5.45
6.07
4.85
3.40
3.20
4.96
8.46
12.68
16.20
17.79
16.80
13.32
8.24
2.95
-1.07
-2.65
-1.29
2.66
7.99
13.07
16.27
16.55
13.77
8.71
2.77
-2.51
-5.92
-6.95
-5.84
-3.50
-1.24
-0.38
-1.91
-6.08
-12.34
-19.42
-25.74
-29.97
-31.50
-30.52
-27.91
-24.74
-21.85
-19.61
-17.81
-15.94
-13.38
-9.69
-4.69
1.39
7.94
14.03
18.56
20.57
19.62
16.04
10.91
5.86
2.46
1.81
4.07
8.49
13.54
17.54
19.12
17.70
13.66
8.27
3.24
0.17
-0.07
2.30
6.09
9.53
10.91
9.30
4.69
-1.96
-9.14
-15.29
-19.26
-20.57
-19.54
-17.21
-15.02
-14.40
-16.33
-20.86
-27.08
-33.23
-37.29
-37.62
-33.51
-25.44
-14.89
-3.95
5.40
11.72
14.50
14.17
11.90
9.27
7.70
8.07
10.45
14.09
17.70
20.00
20.18
18.20
14.83
11.32
8.95
8.60
10.40
13.75
17.52
20.36
21.21
19.57
15.76
10.70
5.67
1.81
-0.24
-0.59
0.10
0.82
0.58
-1.21
-4.66
-9.34
-14.53
-19.35
-23.14
-25.59
-26.84
-27.39
-27.85
-28.61
-29.66
-30.55
-30.53
-28.89
-25.18
-19.39
-12.01
-3.87
4.03
10.74
15.57
18.26
18.98
18.31
17.01
15.81
15.23
15.48
16.51
18.06
19.78
21.17
21.81
21.38
19.93
17.91
16.08
15.23
15.79
17.55
19.70
21.10
20.76
18.26
13.92
8.65
3.59
-0.21
-2.24
-2.54
-1.68
-0.54
-0.06
-0.94
-3.51
-7.66
-12.81
-18.15
-22.82
-26.18
-28.00
-28.46
-28.07
-27.42
-26.94
-26.76
-26.65
-26.08
-24.38
-20.94
-15.37
-7.76
1.26
10.56
18.70
24.35
26.60
25.31
21.14
15.46
10.04
6.50
5.93
8.50
13.42
19.10
23.75
25.96
25.21
21.95
17.41
13.06
10.10
9.16
10.15
12.44
15.02
16.78
16.78
14.49
9.96
3.95
-2.31
-7.40
-10.31
-10.74
-9.22
-6.94
-5.30
-5.46
-8.04
-12.90
-19.28
-25.93
-31.40
-34.40
-34.16
-30.58
-24.40
-16.90
-9.57
-3.58
0.54
3.02
4.65
6.36
8.79
12.09
15.80
19.19
21.43
21.97
20.67
17.87
14.29
10.91
8.71
8.41
10.22
13.68
17.80
21.30
23.07
22.50
19.68
15.36
10.65
6.70
4.32
3.74
4.55
5.88
6.67
6.09
3.82
0.16
-4.12
-8.08
-11.04
-12.72
-13.35
-13.43
-13.63
-14.55
-16.57
-19.80
-23.91
-28.19
-31.61
-33.12
-32.00
-28.11
-21.97
-14.62
-7.24
-0.84
4.01
7.27
9.28
10.64
11.93
13.50
15.34
17.12
18.31
18.50
17.55
15.70
13.56
11.85
11.17
11.81
13.63
16.14
18.61
20.33
20.69
19.46
16.81
13.33
9.89
7.31
6.14
6.37
7.45
8.43
8.38
6.71
3.42
-0.95
-5.58
-9.65
-12.62
-14.29
-14.82
-14.60
-14.18
-14.17
-15.13
-17.41
-20.99
-25.42
-29.78
-32.98
-34.02
-32.33
-27.95
-21.59
-14.42
-7.63
-2.18
1.59
3.89
5.39
6.84
8.70
11.00
13.34
15.12
15.79
15.17
13.47
11.27
9.28
8.14
8.23
9.53
11.67
13.99
15.81
16.61
16.24
14.85
12.85
10.69
8.71
7.07
5.80
4.81
3.95
3.02
1.77
-0.04
-2.50
-5.47
-8.54
-11.21
-13.06
-13.94
-14.06
-13.90
-14.04
-14.96
-16.94
-19.97
-23.72
-27.53
-30.58
-31.97
-31.09
-27.76
-22.41
-15.94
-9.44
-3.82
0.47
3.54
5.85
7.88
9.94
11.98
13.72
14.86
15.16
14.62
13.39
11.79
10.23
9.10
8.74
9.30
10.68
12.53
14.30
15.42
15.48
14.37
12.30
9.75
7.32
5.54
4.69
4.70
5.11
5.21
4.34
2.11
-1.36
-5.52
-9.52
-12.59
-14.29
-14.68
-14.23
-13.72
-13.94
-15.46
-18.52
-22.89
-27.94
-32.73
-36.28
-37.78
-36.87
-33.69
-28.85
-23.19
-17.46
-12.19
-7.56
-3.45
0.41
4.24
8.13
11.93
15.25
17.57
18.48
17.84
15.93
13.43
11.17
9.84
9.78
10.88
12.69
14.63
16.15
16.88
16.67
15.61
14.01
12.36
11.13
10.67
11.01
11.79
12.34
11.93
10.06
6.74
2.55
-1.59
-4.75
-6.37
-6.45
-5.53
-4.50
-4.24
-5.36
-8.05
-12.06
-16.73
-21.29
-24.99
-27.42
-28.63
-29.13
-29.68
-30.89
-32.90
-35.17
-36.68
-36.25
-33.05
-26.89
-18.32
-8.51
1.09
9.09
14.53
17.06
17.04
15.36
13.18
11.61
11.38
12.70
15.23
18.23
20.74
21.98
21.52
19.53
16.78
14.38
13.40
14.35
16.97
20.27
22.93
23.84
22.50
19.21
14.82
10.42
6.93
4.81
4.09
4.34
4.92
5.14
4.42
2.48
-0.62
-4.46
-8.42
-11.82
-14.16
-15.34
-15.60
-15.54
-15.85
-17.13
-19.72
-23.64
-28.53
-33.78
-38.56
-41.97
-43.27
-42.09
-38.54
-33.27
-27.18
-21.09
-15.51
-10.49
-5.71
-0.79
4.46
9.89
15.01
19.08
21.44
21.71
20.01
16.94
13.44
10.57
9.17
9.63
11.76
14.91
18.17
20.66
21.79
21.41
19.82
17.67
15.69
14.44
14.14
14.55
15.13
15.18
14.13
11.71
8.03
3.58
-0.97
-4.93
-7.78
-9.31
-9.71
-9.50
-9.46
-10.44
-13.00
-17.26
-22.79
-28.74
-34.11
-38.07
-40.14
-40.24
-38.57
-35.48
-31.41
-26.69
-21.64
-16.38
-10.85
-4.82
1.87
9.12
16.37
22.66
26.95
28.52
27.28
23.89
19.54
15.52
12.94
12.40
13.88
16.82
20.30
23.30
24.96
24.88
23.18
20.52
17.85
16.01
15.45
16.03
17.07
17.66
16.97
14.62
10.71
5.80
0.64
-3.99
-7.53
-9.73
-10.67
-10.78
-10.75
-11.36
-13.31
-16.96
-22.15
-28.28
-34.49
-39.88
-43.73
-45.67
-45.61
-43.69
-40.27
-35.71
-30.33
-24.38
-17.87
-10.73
-2.92
5.37
13.63
20.99
26.49
29.42
29.59
27.44
23.98
20.42
17.90
17.15
18.30
20.88
23.98
26.56
27.80
27.33
25.39
22.73
20.32
19.00
19.12
20.44
22.18
23.32
22.93
20.48
16.06
10.35
4.42
-0.56
-3.77
-4.98
-4.66
-3.81
-3.62
-5.01
-8.36
-13.41
-19.34
-25.19
-30.13
-33.80
-36.34
-38.22
-40.01
-42.03
-44.17
-45.85
-46.19
-44.23
-39.23
-30.99
-19.95
-7.21
5.65
16.91
25.19
29.80
30.93
29.56
27.07
24.82
23.76
24.18
25.79
27.92
29.74
30.61
30.25
28.77
26.73
24.87
23.90
24.20
25.67
27.74
29.49
29.97
28.53
25.04
20.02
14.49
9.60
6.26
4.79
4.81
5.36
5.30
3.75
0.38
-4.50
-10.14
-15.60
-20.11
-23.25
-25.08
-26.11
-27.13
-29.00
-32.25
-36.80
-41.83
-45.87
-47.32
-44.93
-38.32
-28.11
-15.79
-3.24
7.74
15.89
20.71
22.45
22.02
20.57
19.23
18.74
19.32
20.70
22.28
23.43
23.73
23.07
21.77
20.34
19.42
19.54
20.88
23.17
25.68
27.44
27.58
25.69
21.96
17.21
12.49
8.75
6.47
5.50
5.14
4.52
2.86
-0.19
-4.50
-9.50
-14.39
-18.42
-21.10
-22.40
-22.83
-23.31
-24.86
-28.20
-33.31
-39.31
-44.54
-47.12
-45.56
-39.38
-29.27
-16.92
-4.40
6.43
14.36
19.06
20.93
20.90
20.08
19.52
19.93
21.49
23.89
26.33
27.97
28.13
26.64
23.94
20.90
18.57
17.79
18.93
21.66
25.09
28.03
29.35
28.39
25.17
20.34
14.97
10.19
6.82
5.15
4.90
5.33
5.47
4.41
1.58
-3.00
-8.70
-14.42
-19.00
-21.66
-22.31
-21.63
-20.84
-21.27
-23.89
-28.95
-35.88
-43.35
-49.63
-53.03
-52.41
-47.49
-39.04
-28.58
-17.92
-8.57
-1.33
3.83
7.55
10.68
13.84
17.22
20.56
23.37
25.16
25.64
24.86
23.17
21.16
19.54
18.93
19.66
21.67
24.48
27.28
29.20
29.58
28.24
25.52
22.22
19.25
17.36
16.84
17.38
18.21
18.34
16.94
13.67
8.88
3.51
-1.24
-4.37
-5.43
-4.73
-3.24
-2.19
-2.70
-5.32
-9.89
-15.61
-21.31
-25.87
-28.59
-29.48
-29.28
-29.21
-30.52
-33.90
-39.15
-45.07
-49.81
-51.52
-48.93
-41.83
-31.14
-18.57
-6.15
4.33
11.74
15.80
17.03
16.51
15.53
15.18
16.11
18.31
21.22
23.95
25.61
25.64
24.07
21.50
18.88
17.22
17.19
18.91
21.86
25.09
27.51
28.29
27.04
23.90
19.56
14.95
11.05
8.53
7.62
8.00
8.89
9.34
8.46
5.73
1.18
-4.59
-10.51
-15.41
-18.38
-19.14
-18.13
-16.44
-15.34
-15.96
-18.89
-24.03
-30.73
-37.84
-44.05
-48.12
-49.11
-46.63
-41.06
-33.42
-25.13
-17.49
-11.22
-6.35
-2.25
1.88
6.55
11.72
16.81
20.89
23.05
22.85
20.43
16.56
12.40
9.22
7.95
9.01
12.03
16.12
20.03
22.63
23.18
21.65
18.60
15.04
12.06
10.47
10.52
11.80
13.40
14.18
13.16
9.93
4.78
-1.38
-7.27
-11.70
-13.96
-14.04
-12.61
-10.84
-10.00
-11.17
-14.86
-20.93
-28.54
-36.34
-42.81
-46.61
-47.03
-44.08
-38.47
-31.34
-23.85
-16.89
-10.92
-5.95
-1.70
2.25
6.28
10.59
15.05
19.20
22.31
23.66
22.87
20.17
16.42
12.88
10.78
10.85
13.07
16.66
20.34
22.84
23.26
21.41
17.84
13.61
9.93
7.68
7.15
7.91
9.07
9.57
8.59
5.78
1.35
-4.00
-9.34
-13.72
-16.45
-17.31
-16.64
-15.34
-14.66
-15.78
-19.38
-25.34
-32.66
-39.76
-44.89
-46.76
-44.82
-39.47
-31.85
-23.41
-15.51
-9.00
-4.09
-0.38
2.86
6.32
10.39
14.91
19.23
22.49
23.92
23.21
20.71
17.37
14.42
13.00
13.70
16.37
20.17
23.92
26.41
26.90
25.28
22.10
18.37
15.18
13.37
13.24
14.42
16.03
16.97
16.34
13.74
9.44
4.22
-0.88
-4.93
-7.37
-8.18
-7.83
-7.13
-6.97
-8.12
-10.95
-15.31
-20.56
-25.79
-30.16
-33.21
-34.99
-35.96
-36.65
-37.35
-37.88
-37.65
-35.90
-32.03
-25.83
-17.63
-8.16
1.49
10.18
16.91
21.07
22.58
21.86
19.78
17.32
15.40
14.65
15.32
17.24
19.91
22.52
24.29
24.66
23.59
21.60
19.55
18.26
18.19
19.16
20.49
21.36
21.12
19.56
16.94
13.80
10.66
7.96
5.87
4.40
3.43
2.67
1.80
0.48
-1.51
-4.19
-7.34
-10.52
-13.32
-15.43
-16.83
-17.77
-18.71
-20.21
-22.72
-26.44
-31.18
-36.27
-40.70
-43.33
-43.21
-39.97
-33.94
-26.05
-17.58
-9.72
-3.21
1.82
5.67
8.92
11.97
14.96
17.68
19.70
20.61
20.21
18.64
16.33
13.96
12.18
11.49
12.13
13.94
16.50
19.15
21.20
22.09
21.59
19.82
17.30
14.73
12.78
11.86
11.90
12.41
12.61
11.76
9.48
5.90
1.59
-2.62
-5.97
-8.05
-8.84
-8.75
-8.42
-8.57
-9.77
-12.28
-16.00
-20.42
-24.89
-28.75
-31.64
-33.52
-34.65
-35.37
-35.82
-35.82
-34.93
-32.65
-28.61
-22.77
-15.40
-7.11
1.33
9.04
15.20
19.18
20.75
20.17
18.18
15.82
14.08
13.64
14.63
16.64
18.93
20.70
21.43
21.02
19.85
18.59
17.96
18.42
19.97
22.12
24.05
24.91
24.09
21.53
17.65
13.27
9.25
6.28
4.62
4.14
4.35
4.61
4.29
2.97
0.55
-2.72
-6.28
-9.51
-11.91
-13.27
-13.76
-13.81
-14.05
-15.07
-17.23
-20.62
-25.03
-29.91
-34.61
-38.47
-41.03
-42.08
-41.68
-40.01
-37.23
-33.44
-28.64
-22.87
-16.28
-9.19
-2.01
4.83
10.89
15.83
19.33
21.21
21.46
20.37
18.50
16.56
15.20
14.85
15.56
17.05
18.88
20.52
21.55
21.75
21.09
19.84
18.43
17.37
17.02
17.43
18.29
19.01
19.06
18.10
16.23
13.79
11.27
9.06
7.32
5.99
4.89
3.82
2.62
1.19
-0.47
-2.32
-4.29
-6.29
-8.26
-10.16
-11.99
-13.77
-15.52
-17.28
-19.08
-20.98
-23.00
-25.19
-27.62
-30.39
-33.54
-36.93
-40.17
-42.58
-43.38
-41.90
-37.88
-31.57
-23.70
-15.26
-7.16
-0.08
5.67
10.05
13.16
15.17
16.27
16.67
16.65
16.44
16.18
15.87
15.44
14.87
14.27
13.91
14.08
14.93
16.37
18.04
19.49
20.36
20.45
19.77
18.47
16.73
14.73
12.64
10.64
8.85
7.35
6.07
4.88
3.61
2.11
0.30
-1.88
-4.41
-7.26
-10.22
-13.00
-15.22
-16.64
-17.26
-17.46
-17.85
-19.09
-21.63
-25.47
-30.16
-34.89
-38.72
-40.81
-40.59
-37.81
-32.62
-25.56
-17.44
-9.21
-1.77
4.30
8.73
11.64
13.35
14.29
14.83
15.19
15.49
15.77
16.01
16.15
16.15
16.00
15.75
15.49
15.39
15.53
15.95
16.54
17.10
17.38
17.21
16.45
15.11
13.28
11.10
8.75
6.43
4.32
2.49
0.84
-0.84
-2.82
-5.23
-7.94
-10.64
-12.93
-14.64
-15.88
-17.10
-18.84
-21.49
-25.14
-29.53
-34.13
-38.30
-41.36
-42.70
-41.83
-38.49
-32.84
-25.44
-17.18
-9.03
-1.76
4.20
8.81
12.28
14.88
16.84
18.27
19.22
19.73
19.85
19.69
19.38
19.01
18.68
18.44
18.33
18.39
18.70
19.25
20.01
20.79
21.32
21.29
20.45
18.78
16.46
13.80
11.11
8.59
6.24
3.99
1.77
-0.43
-2.54
-4.53
-6.44
-8.41
-10.53
-12.84
-15.27
-17.75
-20.31
-23.13
-26.47
-30.44
-34.79
-38.78
-41.40
-41.67
-39.09
-33.82
-26.61
-18.55
-10.60
-3.43
2.70
7.79
11.92
15.16
17.60
19.35
20.60
21.54
22.29
22.83
23.04
22.84
22.21
21.32
20.43
19.87
19.89
20.62
21.97
23.60
25.02
25.68
25.16
23.37
20.60
17.37
14.27
11.67
9.63
7.94
6.27
4.34
2.03
-0.60
-3.43
-6.25
-8.92
-11.36
-13.55
-15.53
-17.44
-19.45
-21.79
-24.66
-28.13
-32.01
-35.76
-38.56
-39.46
-37.71
-33.05
-25.84
-17.05
-7.96
0.29
6.93
11.76
14.98
17.05
18.37
19.17
19.58
19.64
19.46
19.19
19.00
18.94
19.00
19.09
19.17
19.28
19.54
20.05
20.75
21.45
21.88
21.72
20.78
19.04
16.62
13.80
10.92
8.26
6.02
4.20
2.63
1.03
-0.83
-3.01
-5.37
-7.71
-9.84
-11.76
-13.64
-15.77
-18.42
-21.69
-25.45
-29.28
-32.58
-34.61
-34.75
-32.65
-28.33
-22.25
-15.17
-7.90
-1.15
4.69
9.45
13.14
15.82
17.49
18.24
18.22
17.72
17.09
16.61
16.46
16.59
16.90
17.24
17.60
18.02
18.52
19.07
19.52
19.68
19.38
18.56
17.27
15.59
13.66
11.61
9.57
7.73
6.21
5.01
3.90
2.53
0.52
-2.27
-5.63
-9.11
-12.21
-14.65
-16.48
-18.01
-19.61
-21.53
-23.88
-26.62
-29.66
-32.75
-35.48
-37.20
-37.15
-34.74
-29.82
-22.87
-14.85
-6.91
-0.02
5.32
9.09
11.60
13.27
14.49
15.49
16.39
17.22
17.98
18.67
19.23
19.64
19.88
20.00
20.09
20.23
20.44
20.68
20.89
21.01
21.01
20.84
20.37
19.47
18.00
15.95
13.51
10.97
8.64
6.69
5.13
3.84
2.67
1.49
0.21
-1.29
-3.17
-5.53
-8.36
-11.50
-14.61
-17.40
-19.71
-21.56
-23.17
-24.81
-26.77
-29.21
-32.13
-35.24
-37.96
-39.48
-39.03
-36.14
-30.90
-23.95
-16.26
-8.80
-2.21
3.23
7.57
10.95
13.46
15.17
16.20
16.79
17.30
18.01
18.98
20.04
20.86
21.11
20.74
19.93
19.08
18.54
18.49
18.87
19.37
19.71
19.69
19.28
18.59
17.73
16.76
15.68
14.38
12.79
10.88
8.69
6.37
4.10
2.11
0.57
-0.48
-1.18
-1.85
-2.82
-4.31
-6.38
-8.84
-11.43
-13.89
-16.07
-17.94
-19.59
-21.17
-22.89
-25.02
-27.77
-31.22
-35.08
-38.70
-41.15
-41.55
-39.35
-34.55
-27.73
-19.81
-11.79
-4.45
1.70
6.44
9.77
11.85
12.96
13.47
13.72
13.97
14.33
14.76
15.16
15.40
15.46
15.37
15.23
15.15
15.23
15.54
16.07
16.73
17.30
17.51
17.16
16.16
14.59
12.61
10.42
8.12
5.82
3.56
1.48
-0.29
-1.69
-2.84
-3.93
-5.19
-6.75
-8.54
-10.40
-12.15
-13.74
-15.22
-16.76
-18.57
-20.78
-23.50
-26.70
-30.12
-33.29
-35.50
-36.08
-34.53
-30.80
-25.26
-18.53
-11.32
-4.24
2.18
7.52
11.43
13.76
14.60
14.37
13.62
12.92
12.54
12.55
12.77
13.02
13.21
13.34
13.46
13.59
13.71
13.73
13.63
13.39
13.03
12.58
12.03
11.32
10.41
9.24
7.85
6.28
4.61
2.85
1.01
-0.99
-3.19
-5.55
-7.99
-10.35
-12.48
-14.31
-15.87
-17.30
-18.84
-20.69
-23.05
