1692521332.00
64.000000
-0.00
-0.00
-0.00
-0.00
-0.00
-0.00
-0.00
-0.00
-0.00
-0.00
0.00
0.01
0.01
-0.00
-0.03
-0.05
-0.05
0.00
0.13
0.36
0.66
1.01
1.38
1.72
2.05
2.39
2.78
3.25
3.84
4.49
5.15
5.72
6.18
6.52
6.83
7.22
7.77
8.60
9.63
10.73
11.73
12.56
13.26
14.00
15.04
16.58
18.86
21.67
24.66
27.47
29.88
31.95
34.06
36.77
40.52
45.73
52.01
58.66
64.91
70.24
74.72
79.00
84.08
90.78
99.80
110.51
121.80
132.34
141.24
148.49
155.02
162.73
170.88
182.01
196.60
214.19
232.85
249.11
258.54
256.91
241.61
212.54
172.55
125.50
75.25
24.33
-26.59
-78.17
-131.23
-185.53
-239.00
-287.68
-327.24
-353.91
-365.87
-363.83
-350.71
-330.52
-306.93
-282.51
-258.36
-234.96
-212.74
-192.47
-174.93
-160.36
-148.11
-136.81
-125.00
-111.79
-97.42
-82.92
-69.73
-58.90
-50.69
-44.51
-39.25
-33.80
-27.51
-20.40
-13.12
-6.50
-1.21
2.54
5.02
6.83
8.59
10.69
13.18
15.81
18.20
20.01
21.07
21.45
21.36
21.10
20.89
20.88
21.03
21.21
21.26
21.06
20.59
19.94
19.21
18.47
17.77
17.09
16.39
15.68
14.97
14.29
13.66
13.09
12.60
12.20
11.92
11.75
11.65
11.56
11.41
11.17
10.88
10.57
10.27
10.00
9.71
9.38
9.00
8.63
8.33
8.17
8.13
8.17
8.17
8.06
7.81
7.44
7.03
6.63
6.28
5.97
5.71
5.49
5.33
5.22
5.13
4.99
4.74
4.42
4.12
4.00
4.12
4.43
4.76
4.90
4.72
4.29
3.83
3.58
3.70
4.12
4.62
4.89
4.76
4.24
3.62
3.27
3.50
4.42
5.82
7.29
8.39
8.88
8.82
8.58
8.67
9.41
10.86
12.66
14.23
15.03
14.85
13.82
12.45
11.34
10.96
11.58
13.26
15.87
18.90
21.25
21.27
17.19
7.99
-5.86
-22.19
-37.81
-49.80
-56.66
-58.85
-58.27
-57.11
-56.72
-57.15
-57.38
-56.15
-52.76
-47.34
-40.76
-34.01
-27.82
-22.39
-17.47
-12.56
-7.45
-2.31
2.31
5.75
7.63
8.08
7.70
7.24
7.28
7.88
8.65
8.95
8.24
6.46
4.16
2.25
1.59
2.66
5.41
9.43
14.25
19.60
25.35
31.32
37.10
42.05
45.54
47.31
47.55
46.83
45.77
44.71
43.65
42.34
40.56
38.23
35.40
32.22
28.78
25.15
21.44
17.73
14.17
10.84
7.77
4.98
2.46
0.25
-1.59
-3.04
-4.10
-4.79
-5.14
-5.12
-4.69
-3.82
-2.64
-1.38
-0.36
0.18
0.17
-0.25
-0.81
-1.22
-1.30
-1.01
-0.43
0.27
0.97
1.59
2.14
2.66
3.24
3.97
4.92
6.16
7.71
9.54
11.52
13.51
15.42
17.28
19.20
21.31
23.62
25.95
27.97
29.32
29.80
29.42
28.39
26.99
25.51
24.20
23.26
22.84
22.86
22.91
22.19
19.76
14.87
7.46
-1.71
-11.19
-19.34
-24.92
-27.46
-27.30
-25.25
-22.20
-18.78
-15.31
-11.97
-8.92
-6.40
-4.63
-3.64
-3.18
-2.70
-1.62
0.49
3.72
7.82
12.35
16.97
21.68
26.75
32.47
38.69
44.60
48.87
50.25
48.25
43.60
38.08
33.83
32.56
35.02
41.05
49.88
60.46
71.42
80.84
86.33
85.52
77.08
61.67
42.13
22.76
7.89
0.49
1.27
8.76
19.94
31.12
38.85
40.57
34.97
22.16
3.51
-18.78
-42.19
-64.39
-83.43
-97.97
-107.27
-111.30
-110.80
-107.22
-102.31
-97.59
-93.83
-90.94
-88.24
-84.94
-80.66
-75.54
-70.12
-65.00
-60.54
-56.76
-53.42
-50.20
-46.85
-43.35
-39.83
-36.52
-33.60
-31.14
-29.09
-27.36
-25.84
-24.50
-23.32
-22.26
-21.30
-20.44
-19.69
-19.15
-18.92
-19.08
-19.64
-20.52
-21.58
-22.75
-24.01
-25.41
-27.06
-29.03
-31.37
-34.03
-36.94
-39.99
-43.09
-46.18
-49.29
-52.50
-55.98
-59.90
-64.36
-69.33
-74.66
-80.12
-85.53
-90.78
-95.87
-100.84
-105.59
-109.66
-112.01
-111.13
-105.29
-93.03
-73.63
-47.53
-16.45
16.78
48.61
75.52
94.78
105.15
107.12
102.61
94.27
84.60
75.28
66.93
59.38
52.08
44.59
36.76
28.93
21.79
16.42
13.94
15.11
19.83
26.93
34.50
40.50
43.60
43.62
41.39
38.23
35.29
33.13
31.76
30.87
30.12
29.32
28.36
27.06
25.15
22.34
18.41
13.42
7.74
1.92
-3.50
-8.18
-12.13
-15.69
-19.41
-23.81
-29.02
-34.72
-40.13
-44.23
-46.12
-45.40
-42.26
-37.50
-32.14
-27.08
-22.79
-19.20
-15.80
-11.87
-6.65
0.49
10.05
22.30
37.16
53.94
71.35
87.60
100.91
110.01
114.55
115.30
113.67
111.25
109.21
107.85
106.70
104.76
100.90
94.05
83.31
68.04
48.15
24.33
-1.70
-27.50
-50.55
-69.00
-82.22
-90.65
-95.20
-96.47
-94.42
-88.55
-78.53
-64.79
-48.67
-32.13
-17.06
-4.70
4.58
11.14
15.69
19.04
21.64
23.66
25.05
25.71
25.66
25.13
24.48
24.11
24.26
24.96
26.08
27.34
28.41
29.04
29.12
28.74
28.28
28.25
29.10
31.03
33.78
36.75
39.12
40.30
40.17
39.23
38.41
38.69
40.68
44.20
48.30
51.60
52.85
51.58
48.41
44.93
43.02
44.22
49.00
56.45
64.24
68.98
66.54
52.62
23.91
-20.36
-76.81
-137.52
-191.60
-228.65
-242.40
-232.90
-205.82
-169.55
-131.48
-95.84
-63.82
-35.31
-10.79
8.18
20.18
25.46
26.45
26.61
28.19
30.64
30.91
25.33
11.84
-8.48
-31.60
-51.96
-64.60
-66.69
-58.33
-42.13
-22.25
-3.05
12.05
21.38
25.13
24.86
22.60
19.90
17.38
14.73
11.37
7.06
2.13
-2.69
-6.72
-9.70
-11.91
-13.91
-16.30
-19.38
-23.13
-27.21
-31.05
-34.00
-35.34
-34.35
-30.43
-23.35
-13.40
-1.50
10.90
22.28
31.35
37.47
40.65
41.42
40.49
38.54
36.06
33.37
30.68
28.12
25.75
23.51
21.24
18.76
15.97
13.00
10.08
7.50
5.40
3.72
2.24
0.76
-0.70
-1.86
-2.23
-1.40
0.73
3.85
7.33
10.48
12.77
14.08
14.54
14.47
14.07
13.43
12.51
11.32
9.97
8.72
7.77
7.21
6.92
6.66
6.20
5.41
4.38
3.34
2.58
2.37
2.82
3.84
5.13
6.35
7.18
7.51
7.39
7.03
6.62
6.19
5.67
4.90
3.80
2.43
0.98
-0.29
-1.22
-1.75
-1.95
-1.94
-1.87
-1.80
-1.75
-1.67
-1.44
-0.94
-0.11
0.99
2.24
3.46
4.47
5.22
5.70
5.98
6.08
6.05
5.93
5.79
5.74
5.88
6.26
6.76
7.15
7.10
6.40
4.96
2.97
0.79
-1.09
-2.27
-2.50
-1.84
-0.52
1.11
2.71
4.04
4.94
5.30
5.08
4.27
2.97
1.32
-0.59
-2.75
-5.25
-8.18
-11.45
-14.79
-17.82
-20.19
-21.75
-22.47
-22.33
-21.20
-18.87
-15.23
-10.49
-5.24
-0.31
3.57
6.04
7.20
7.45
7.25
6.91
6.59
6.34
6.23
6.36
6.76
7.27
7.58
7.30
6.10
3.92
0.99
-2.18
-4.90
-6.50
-6.49
-4.73
-1.54
2.42
6.31
9.40
11.23
11.75
11.17
9.81
7.87
5.46
2.63
-0.50
-3.64
-6.46
-8.63
-9.98
-10.57
-10.63
-10.46
-10.25
-9.98
-9.35
-7.94
-5.35
-1.44
3.57
9.09
14.35
18.66
21.56
22.96
23.15
22.65
22.08
21.97
22.60
23.91
25.49
26.59
26.40
24.23
19.78
13.24
5.24
-3.25
-11.05
-16.98
-20.00
-19.40
-14.96
-7.06
3.28
14.43
24.29
30.69
31.99
27.74
19.09
8.68
-0.16
-4.70
-3.93
1.04
7.39
11.94
12.29
7.44
-2.46
-16.37
-32.55
-48.25
-59.79
-63.34
-56.28
-38.66
-13.60
13.73
38.18
56.62
68.61
75.81
80.09
81.97
79.98
71.32
53.62
26.63
-7.03
-42.60
-74.98
-101.08
-121.16
-138.40
-156.62
-177.22
-197.18
-209.47
-206.00
-181.67
-137.41
-80.46
-21.71
28.50
63.87
83.42
90.30
89.20
83.90
76.20
66.44
54.78
42.33
31.11
23.08
18.83
16.86
13.87
6.43
-7.00
-24.74
-42.11
-53.13
-53.28
-41.66
-21.55
0.99
19.79
31.11
34.72
33.21
30.04
27.64
26.50
25.68
23.92
20.75
16.79
13.26
11.16
10.66
11.06
11.17
9.97
7.06
2.83
-1.78
-5.66
-7.86
-7.84
-5.62
-1.65
3.29
8.30
12.64
15.83
17.80
18.70
18.81
18.30
17.19
15.44
13.05
10.24
7.41
4.96
3.17
2.02
1.25
0.47
-0.58
-1.97
-3.44
-4.57
-4.92
-4.24
-2.56
-0.25
2.16
4.13
5.33
5.71
5.48
4.98
4.51
4.20
4.03
3.91
3.74
3.56
3.46
3.51
3.68
3.78
3.57
2.83
1.53
-0.10
-1.60
-2.46
-2.30
-1.06
0.94
3.13
4.90
5.90
6.10
5.75
5.18
4.63
4.09
3.42
2.47
1.20
-0.29
-1.85
-3.39
-4.87
-6.32
-7.72
-8.99
-9.97
-10.46
-10.31
-9.42
-7.80
-5.61
-3.11
-0.65
1.46
2.98
3.86
4.17
4.09
3.84
3.57
3.40
3.38
3.55
3.89
4.30
4.63
4.71
4.43
3.79
2.92
2.06
1.45
1.25
1.50
2.11
2.92
3.74
4.45
4.97
5.31
5.50
5.60
5.70
5.84
6.03
6.06
5.62
4.31
1.82
-1.83
-6.29
-10.97
-15.27
-18.74
-21.15
-22.33
-22.10
-20.22
-16.55
-11.29
-5.05
1.22
6.57
10.34
12.35
12.83
12.22
10.98
9.48
8.03
6.89
6.25
6.12
6.28
6.37
5.94
4.73
2.61
-0.27
-3.57
-6.72
-9.03
-9.77
-8.50
-5.25
-0.62
4.38
8.73
11.75
13.33
13.84
13.79
13.50
12.86
11.42
8.68
4.40
-1.14
-7.25
-13.00
-17.67
-20.91
-22.88
-23.99
-24.57
-24.58
-23.59
-21.10
-16.90
-11.36
-5.39
-0.08
3.71
5.67
6.06
5.50
4.65
3.91
3.40
3.05
2.75
2.53
2.57
3.06
3.97
4.96
5.41
4.62
2.19
-1.63
-5.89
-9.21
-10.29
-8.54
-4.30
1.26
6.62
10.59
12.68
13.14
12.67
11.99
11.50
11.21
10.81
9.93
8.31
5.87
2.76
-0.73
-4.25
-7.49
-10.26
-12.48
-14.05
-14.75
-14.28
-12.33
-8.86
-4.24
0.74
5.12
8.15
9.53
9.52
8.71
7.76
7.06
6.74
6.63
6.54
6.30
5.72
4.53
2.34
-1.29
-6.60
-13.35
-20.66
-27.01
-30.71
-30.43
-25.85
-17.79
-8.02
1.37
8.72
13.27
15.18
15.28
14.49
13.52
12.62
11.73
10.63
9.14
7.18
4.76
2.00
-0.92
-3.74
-6.29
-8.42
-10.03
-10.93
-10.84
-9.47
-6.63
-2.52
2.27
6.87
10.41
12.37
12.74
11.95
10.65
9.45
8.78
8.84
9.67
11.22
13.28
15.32
16.45
15.54
11.59
4.27
-5.64
-16.16
-24.63
-28.68
-27.17
-20.66
-11.17
-1.25
7.05
12.86
16.45
18.65
20.14
21.03
20.99
19.69
17.27
14.40
11.98
10.68
10.49
10.81
10.82
9.91
8.01
5.73
4.02
3.77
5.47
8.99
13.46
17.29
18.39
14.67
4.73
-11.32
-31.45
-52.02
-68.82
-78.50
-79.71
-73.59
-63.06
-51.61
-42.07
-35.87
-33.21
-33.54
-35.98
-39.32
-41.89
-41.47
-36.03
-24.60
-8.04
10.92
28.49
41.35
47.81
48.23
44.51
38.91
33.12
27.85
23.13
18.78
14.84
11.54
9.08
7.42
6.24
5.16
3.87
2.35
0.82
-0.38
-0.89
-0.56
0.57
2.19
3.88
5.23
6.03
6.33
6.38
6.44
6.63
6.90
7.05
6.89
6.40
5.74
5.15
4.82
4.79
4.93
5.04
4.90
4.44
3.76
3.12
2.82
3.11
4.05
5.50
7.18
8.75
9.91
10.51
10.52
10.05
9.29
8.47
7.74
7.11
6.34
5.06
2.81
-0.62
-5.10
-10.16
-15.13
-19.43
-22.61
-24.42
-24.66
-23.10
-19.64
-14.43
-8.07
-1.55
4.03
7.89
9.79
10.14
9.69
9.16
8.98
9.18
9.53
9.79
9.85
9.74
9.51
9.08
8.15
6.32
3.24
-0.98
-5.61
-9.38
-10.89
-9.19
-4.26
2.91
10.73
17.61
22.52
25.20
25.95
25.20
23.14
19.81
15.25
9.79
4.13
-1.03
-5.38
-9.25
-13.44
-18.81
-25.65
-33.29
-40.07
-43.83
-42.66
-35.69
-23.62
-8.76
5.59
16.11
20.54
18.38
10.98
0.84
-9.31
-17.46
-22.67
-25.02
-25.08
-23.56
-21.06
-18.13
-15.44
-13.79
-13.94
-16.24
-20.11
-23.99
-25.69
-23.27
-15.93
-4.53
8.56
20.38
28.57
32.22
32.01
29.62
26.81
24.62
23.15
21.78
19.75
16.59
12.32
7.40
2.45
-1.95
-5.51
-8.22
-10.20
-11.46
-11.73
-10.57
-7.59
-2.80
3.21
9.41
14.64
18.05
19.32
18.71
16.83
14.46
12.36
11.11
11.03
12.16
14.14
16.25
17.44
16.58
12.62
4.96
-6.04
-18.81
-30.62
-38.24
-39.12
-32.45
-19.66
-3.95
10.94
22.09
28.26
29.88
28.25
24.61
19.66
13.58
6.54
-0.93
-7.91
-13.52
-17.36
-19.70
-21.35
-23.24
-25.94
-29.32
-32.42
-33.85
-32.35
-27.43
-19.72
-10.85
-2.76
3.00
5.88
6.39
5.66
4.75
4.20
3.96
3.66
3.12
2.44
2.01
2.13
2.75
3.47
3.70
2.93
0.98
-1.92
-5.10
-7.59
-8.33
-6.56
-2.12
4.34
11.50
17.83
22.08
23.76
23.25
21.55
19.73
18.54
18.16
18.28
18.33
17.76
16.21
13.66
10.43
7.14
4.56
3.38
3.86
5.73
8.17
10.12
10.80
10.08
8.71
7.94
8.93
11.98
16.25
19.97
21.24
18.92
13.27
5.87
-1.00
-5.29
-5.85
-2.64
3.25
9.78
14.02
12.36
1.45
-20.34
-51.16
-84.97
-112.86
-126.09
-119.81
-95.36
-59.88
-23.23
6.15
24.16
31.55
31.92
28.99
24.67
19.03
11.55
2.41
-6.99
-14.85
-20.14
-23.35
-26.20
-30.43
-36.58
-43.23
-47.43
-45.98
-37.06
-21.26
-1.57
17.72
32.61
40.90
42.68
39.86
35.07
30.42
26.91
24.47
22.50
20.45
18.16
15.85
13.88
12.46
11.53
10.80
9.94
8.69
7.06
5.35
4.05
3.57
4.13
5.57
7.43
9.17
10.37
10.94
11.03
10.91
10.81
10.82
10.84
10.71
10.29
9.46
8.09
6.06
3.26
-0.28
-4.30
-8.29
-11.69
-14.00
-14.99
-14.70
-13.35
-11.25
-8.63
-5.68
-2.56
0.52
3.32
5.53
6.87
7.20
6.58
5.35
4.04
3.21
3.28
4.43
6.53
9.20
11.85
13.65
13.64
10.96
5.33
-2.52
-10.79
-17.21
-19.87
-18.19
-13.14
-6.80
-1.36
1.90
2.95
2.72
2.25
2.12
2.20
2.02
1.20
-0.19
-1.74
-2.96
-3.60
-3.76
-3.80
-4.13
-4.94
-6.12
-7.30
-7.96
-7.62
-6.05
-3.29
0.23
3.89
6.97
8.96
9.66
9.29
8.33
7.34
6.76
6.75
7.29
8.17
9.10
9.61
9.12
6.94
2.60
-3.90
-11.74
-19.37
-24.85
-26.61
-24.05
-17.80
-9.51
-1.16
5.63
10.08
12.25
12.74
12.25
11.28
10.04
8.47
6.48
4.01
1.10
-2.16
-5.70
-9.51
-13.60
-17.93
-22.20
-25.75
-27.61
-26.80
-22.82
-16.00
-7.59
0.62
6.99
10.56
11.35
10.18
8.11
6.02
4.33
3.09
2.22
1.63
1.22
0.83
0.11
-1.36
-3.89
-7.49
-11.67
-15.53
-17.95
-17.94
-15.02
-9.47
-2.28
5.15
11.46
15.77
17.90
18.25
17.46
16.09
14.42
12.48
10.30
8.03
5.95
4.38
3.49
3.23
3.40
3.69
3.83
3.63
3.07
2.23
1.37
0.81
0.85
1.68
3.26
5.33
7.48
9.25
10.30
10.50
9.93
8.88
7.73
6.93
6.79
7.41
8.53
9.48
9.35
7.31
2.96
-3.47
-11.05
-18.37
-23.96
-26.66
-26.00
-22.33
-16.65
-10.34
-4.67
-0.49
1.90
2.71
2.40
1.40
-0.02
-1.79
-3.82
-5.99
-8.02
-9.63
-10.72
-11.41
-12.01
-12.90
-14.23
-15.75
-16.73
-16.24
-13.53
-8.48
-1.79
5.23
11.15
14.99
16.56
16.36
15.21
13.82
12.54
11.40
10.37
9.49
8.94
8.82
8.94
8.77
7.64
5.00
0.75
-4.62
-10.13
-14.50
-16.61
-15.83
-12.24
-6.67
-0.41
5.21
9.21
11.21
11.42
10.43
8.88
7.26
5.77
4.46
3.28
2.28
1.54
1.14
1.12
1.36
1.68
1.91
1.95
1.82
1.63
1.52
1.60
1.93
2.50
3.27
4.13
4.99
5.71
6.21
6.46
6.53
6.51
6.53
6.68
6.98
7.42
7.96
8.44
8.61
8.10
6.56
3.80
-0.02
-4.32
-8.29
-11.13
-12.36
-12.00
-10.47
-8.41
-6.40
-4.73
-3.47
-2.56
-2.02
-1.98
-2.63
-4.05
-6.09
-8.34
-10.35
-11.76
-12.48
-12.69
-12.74
-12.99
-13.57
-14.29
-14.61
-13.88
-11.60
-7.71
-2.71
2.50
6.97
10.10
11.80
12.48
12.65
12.68
12.64
12.38
11.79
10.97
10.20
9.81
9.92
10.36
10.71
10.49
9.41
7.44
4.88
2.24
0.07
-1.19
-1.43
-0.83
0.18
1.10
1.56
1.46
0.96
0.40
0.10
0.25
0.86
1.75
2.66
3.26
3.22
2.30
0.39
-2.40
-5.81
-9.46
-12.93
-15.80
-17.67
-18.13
-16.88
-13.85
-9.39
-4.24
0.63
4.33
6.38
6.84
6.21
5.17
4.28
3.85
3.93
4.40
5.08
5.73
6.14
6.15
5.77
5.25
4.97
5.31
6.34
7.72
8.81
8.96
7.91
6.02
4.22
3.55
4.65
7.37
10.68
13.19
13.79
12.21
9.23
6.36
5.10
6.45
10.47
16.26
22.16
25.83
24.53
15.70
-1.95
-27.29
-56.16
-82.14
-98.61
-101.33
-90.15
-69.05
-44.20
-21.39
-4.00
7.44
14.25
18.00
19.48
18.74
15.79
11.35
6.87
3.97
3.64
5.64
8.69
11.14
11.69
9.97
6.69
3.17
0.81
0.49
2.27
5.43
8.84
11.48
12.78
12.81
12.08
11.24
10.79
10.82
11.09
11.12
10.43
8.72
6.01
2.63
-0.89
-4.00
-6.30
-7.73
-8.56
-9.22
-10.04
-10.91
-11.33
-10.53
-7.96
-3.60
1.91
7.51
12.14
15.16
16.53
16.69
16.18
15.33
14.08
12.13
9.26
5.52
1.25
-3.11
-7.39
-11.82
-16.92
-23.04
-29.87
-36.17
-40.06
-39.70
-34.24
-24.31
-11.94
0.25
9.98
16.12
18.84
19.16
18.26
16.98
15.62
14.14
12.52
10.90
9.57
8.71
8.27
7.95
7.30
5.96
3.81
1.05
-1.89
-4.39
-5.83
-5.77
-4.10
-1.10
2.63
6.33
9.39
11.47
12.48
12.51
11.65
9.95
7.56
4.82
2.35
0.80
0.51
1.17
1.84
1.21
-1.83
-7.68
-15.73
-24.45
-31.74
-35.64
-34.93
-29.60
-20.87
-10.82
-1.64
5.05
8.73
9.81
9.30
8.15
6.95
5.88
4.92
4.07
3.39
2.87
2.26
1.12
-0.91
-3.92
-7.57
-11.22
-14.11
-15.61
-15.34
-13.23
-9.54
-4.82
0.16
4.53
7.65
9.25
9.53
8.98
8.16
7.42
6.88
6.44
6.01
5.52
5.00
4.44
3.75
2.80
1.46
-0.31
-2.41
-4.59
-6.42
-7.40
-7.03
-5.08
-1.70
2.48
6.53
9.54
10.94
10.68
9.19
7.11
4.99
3.11
1.50
0.05
-1.32
-2.59
-3.68
-4.55
-5.18
-5.63
-6.04
-6.47
-6.90
-7.14
-6.86
-5.78
-3.81
-1.14
1.74
4.28
6.10
7.07
7.34
7.18
6.77
6.16
5.34
4.36
3.34
2.48
1.90
1.56
1.26
0.73
-0.21
-1.55
-3.10
-4.52
-5.52
-5.85
-5.42
-4.27
-2.54
-0.47
1.62
3.37
4.42
4.54
3.74
2.25
0.55
-0.85
-1.58
-1.55
-0.99
-0.26
0.27
0.44
0.27
-0.06
-0.38
-0.60
-0.74
-0.84
-0.88
-0.78
-0.47
0.10
0.82
1.54
2.08
2.35
2.36
2.19
1.90
1.54
1.11
0.63
0.13
-0.33
-0.73
-1.10
-1.47
-1.90
-2.36
-2.78
-3.06
-3.16
-3.10
-2.90
-2.50
-1.81
-0.75
0.67
2.26
3.69
4.65
4.96
4.69
4.10
3.47
3.01
2.73
2.52
2.22
1.77
1.18
0.63
0.27
0.20
0.40
0.73
1.03
1.17
1.17
1.13
1.25
1.65
2.33
3.15
3.89
4.35
4.46
4.26
3.91
3.60
3.48
3.62
4.01
4.53
5.04
5.32
5.15
4.27
2.54
-0.02
-3.14
-6.34
-9.04
-10.73
-11.16
-10.40
-8.77
-6.73
-4.69
-2.93
-1.58
-0.72
-0.36
-0.48
-1.00
-1.71
-2.36
-2.69
-2.57
-2.02
-1.18
-0.25
0.59
1.20
1.49
1.46
1.14
0.71
0.36
0.27
0.56
1.18
1.99
2.79
3.43
3.84
4.02
4.02
3.87
3.61
3.25
2.78
2.17
1.38
0.33
-0.99
-2.51
-4.05
-5.31
-6.00
-5.94
-5.13
-3.82
-2.39
-1.23
-0.61
-0.55
-0.91
-1.43
-1.95
-2.40
-2.84
-3.38
-4.05
-4.79
-5.47
-6.01
-6.40
-6.71
-7.06
-7.55
-8.17
-8.91
-9.71
-10.50
-11.10
-11.20
-10.39
-8.31
-4.92
-0.57
4.04
8.08
10.96
12.47
12.86
12.55
11.96
11.31
10.62
9.83
8.89
7.83
6.72
5.66
4.67
3.77
2.95
2.23
1.66
1.31
1.24
1.49
2.00
2.61
3.14
3.42
3.36
3.00
2.47
1.92
1.47
1.13
0.82
0.45
-0.01
-0.56
-1.09
-1.47
-1.61
-1.48
-1.11
-0.59
-0.00
0.59
1.16
1.67
2.08
2.35
2.47
2.50
2.54
2.70
3.04
3.52
4.05
4.50
4.81
4.97
5.03
5.04
5.03
4.96
4.76
4.34
3.68
2.83
1.94
1.16
0.65
0.52
0.77
1.36
2.24
3.31
4.36
4.99
4.75
3.25
0.45
-3.25
-7.13
-10.42
-12.64
-13.81
-14.31
-14.65
-15.18
-15.93
-16.68
-17.09
-16.87
-15.84
-13.88
-11.02
-7.33
-3.08
1.35
5.49
8.90
11.30
12.63
13.05
12.88
12.48
12.16
12.07
12.17
12.23
11.96
11.11
9.54
7.27
4.41
1.09
-2.53
-6.23
-9.66
-12.38
-13.94
-14.06
-12.77
-10.45
-7.70
-5.13
-3.18
-1.98
-1.46
-1.40
-1.60
-1.92
-2.28
-2.59
-2.80
-2.86
-2.74
-2.50
-2.24
-2.06
-2.02
-2.15
-2.42
-2.74
-2.97
-2.92
-2.44
-1.45
-0.03
1.61
3.14
4.21
4.63
4.39
3.70
2.84
2.11
1.64
1.42
1.33
1.23
0.99
0.58
-0.03
-0.88
-1.96
-3.18
-4.29
-4.90
-4.63
-3.27
-0.92
1.98
4.87
7.24
8.82
9.58
9.65
9.15
8.16
6.74
5.04
3.29
1.80
0.79
0.28
0.09
-0.04
-0.31
-0.77
-1.32
-1.79
-2.05
-2.06
-1.83
-1.42
-0.89
-0.28
0.33
0.85
1.19
1.30
1.21
0.99
0.75
0.55
0.40
0.25
0.04
-0.27
-0.68
-1.16
-1.62
-2.02
-2.33
-2.59
-2.88
-3.22
-3.54
-3.73
-3.66
-3.32
-2.83
-2.36
-2.11
-2.14
-2.42
-2.86
-3.36
-3.86
-4.31
-4.63
-4.73
-4.53
-4.03
-3.36
-2.71
-2.27
-2.13
-2.25
-2.48
-2.67
-2.66
-2.34
-1.61
-0.47
1.04
2.71
4.26
5.43
6.05
6.16
5.96
5.74
5.67
5.77
5.85
5.71
5.20
4.38
3.47
2.74
2.37
2.33
2.40
2.26
1.66
0.54
-0.94
-2.44
-3.57
-4.09
-3.97
-3.38
-2.57
-1.75
-1.03
-0.38
0.23
0.77
1.16
1.25
0.99
0.43
-0.26
-0.90
-1.34
-1.56
-1.61
-1.58
-1.53
-1.49
-1.46
-1.46
-1.48
-1.51
-1.48
-1.30
-0.89
-0.24
0.61
1.55
2.39
2.99
3.25
3.16
2.80
2.32
1.90
1.67
1.66
1.81
1.95
1.91
1.59
0.98
0.21
-0.56
-1.16
-1.54
-1.68
-1.62
-1.36
-0.89
-0.21
0.67
1.64
2.54
3.18
3.45
3.33
2.89
2.33
1.88
1.72
1.97
2.60
3.44
4.16
4.47
4.18
3.38
2.48
2.09
2.72
4.48
6.92
9.15
10.23
9.64
7.66
5.29
3.88
4.44
7.11
11.05
14.71
16.64
16.11
13.55
10.25
7.81
7.50
9.76
14.35
20.53
27.10
32.12
32.79
26.09
10.35
-13.07
-39.29
-61.24
-72.58
-70.65
-57.73
-39.79
-23.40
-12.71
-8.12
-7.24
-7.14
-6.34
-5.31
-5.42
-7.51
-11.02
-14.29
-15.65
-14.46
-11.41
-8.17
-6.47
-7.12
-9.62
-12.36
-13.43
-11.53
-6.62
0.03
6.49
11.01
12.78
12.12
10.15
8.15
6.95
6.68
6.92
7.07
6.74
5.87
4.69
3.45
2.27
1.02
-0.50
-2.49
-4.91
-7.42
-9.49
-10.47
-9.99
-8.01
-4.94
-1.48
1.65
3.94
5.27
5.78
5.78
5.50
5.01
4.30
3.35
2.22
1.08
0.11
-0.60
-1.00
-1.14
-1.11
-0.98
-0.78
-0.46
0.17
1.36
3.35
6.18
9.64
13.28
16.56
19.03
20.52
21.05
20.81
20.04
18.94
17.76
16.76
16.15
16.02
16.14
16.01
14.92
12.25
7.69
1.47
-5.57
-12.16
-16.88
-18.63
-17.01
-12.51
-6.31
0.10
5.51
9.37
11.77
13.22
14.20
14.83
14.84
13.76
11.27
7.42
2.75
-1.95
-5.92
-8.67
-10.20
-10.92
-11.47
-12.29
-13.37
-14.15
-13.72
-11.27
-6.58
-0.20
6.67
12.62
16.51
17.96
17.41
15.90
14.69
14.72
16.24
18.55
20.06
18.64
12.40
0.45
-16.68
-37.10
-57.95
-75.96
-87.97
-91.45
-85.09
-69.34
-46.64
-21.12
2.56
20.59
31.23
35.12
34.59
32.36
30.31
29.00
27.96
26.43
23.98
20.68
16.94
13.26
10.06
7.66
6.17
5.54
5.55
5.84
6.05
5.95
5.60
5.29
5.36
5.86
6.42
6.26
4.54
0.88
-4.33
-9.84
-14.04
-15.71
-14.54
-11.28
-7.40
-4.68
-4.92
-9.90
-21.22
-39.55
-63.58
-89.15
-109.65
-118.04
-109.87
-85.50
-50.44
-13.25
17.99
38.68
48.66
50.98
49.45
46.62
43.26
39.18
34.41
29.78
26.48
25.18
25.34
25.45
23.87
19.79
13.71
7.24
2.28
0.13
0.95
3.83
7.32
10.17
11.83
12.62
13.39
14.94
17.52
20.57
23.01
23.71
22.16
18.74
14.57
11.02
9.13
9.25
10.80
12.30
11.47
5.57
-7.84
-29.58
-57.48
-86.00
-107.45
-114.76
-104.59
-79.13
-45.42
-12.41
12.75
27.14
32.28
32.06
30.15
28.31
26.39
23.53
19.57
15.45
12.75
12.53
14.69
17.99
20.79
21.85
20.86
18.50
15.91
14.14
13.73
14.65
16.44
18.54
20.44
21.76
22.22
21.68
20.23
18.26
16.47
15.65
16.20
17.94
20.09
21.49
20.84
16.94
8.60
-5.12
-24.40
-47.71
-71.31
-89.74
-97.57
-91.78
-73.44
-47.56
-21.16
-0.32
12.10
16.86
17.05
15.89
15.07
14.54
13.37
11.02
7.97
5.46
4.68
5.96
8.63
11.42
13.08
12.97
11.33
9.04
7.17
6.59
7.62
10.03
13.19
16.29
18.60
19.65
19.35
18.01
16.30
15.05
14.99
16.35
18.81
21.51
23.31
23.05
19.66
12.20
0.05
-16.53
-35.74
-54.02
-66.71
-69.61
-60.89
-42.13
-17.96
5.81
24.54
36.36
42.33
45.09
47.12
49.58
52.28
54.55
56.17
57.72
60.22
64.39
70.05
76.23
81.67
85.46
87.60
88.92
90.73
94.18
99.83
107.53
116.71
126.74
137.01
146.91
155.50
161.42
162.86
157.99
145.36
124.27
94.92
58.16
15.05
-33.54
-86.97
-144.40
-204.03
-262.76
-316.56
-361.67
-395.86
-418.94
-432.17
-436.83
-432.91
-418.77
-392.24
-352.28
-300.15
-239.27
-173.88
-107.60
-42.84
18.85
75.76
125.63
166.10
195.78
214.74
224.16
225.32
218.68
203.98
181.30
152.52
122.13
96.54
82.04
82.44
97.53
123.13
152.58
178.62
195.27
199.04
189.55
169.44
143.54
117.18
94.22
75.37
57.84
36.43
5.94
-36.45
-89.76
-149.66
-210.33
-266.70
-315.61
-355.49
-385.14
-402.72
-405.81
-392.50
-362.80
-319.18
-266.00
-207.86
-148.17
-88.73
-30.54
24.82
74.34
113.98
140.10
151.12
148.38
135.62
117.67
98.82
81.85
67.89
56.93
48.65
42.93
40.02
40.24
43.61
49.42
56.31
62.53
66.63
68.00
66.97
64.56
61.91
59.66
57.81
55.89
53.35
50.04
46.21
42.43
39.10
36.33
33.74
30.73
26.79
21.84
16.37
11.37
7.98
7.03
8.72
12.48
17.18
21.55
24.61
26.01
25.97
25.11
24.07
23.27
22.80
22.51
22.17
21.54
20.51
19.08
17.44
15.96
15.17
15.52
17.19
19.88
22.79
24.96
25.65
24.75
22.89
21.09
20.17
20.25
20.59
19.89
17.03
11.70
4.62
-2.69
-8.51
-11.65
-11.68
-8.89
-4.24
0.63
3.27
0.46
-10.92
-32.35
-61.97
-93.97
-119.89
-131.69
-125.16
-101.94
-68.85
-34.96
-7.72
9.53
17.78
20.35
20.41
19.35
16.93
12.61
6.74
0.94
-2.75
-3.12
-0.65
2.75
4.69
3.47
-1.13
-7.82
-14.38
-18.61
-19.08
-15.58
-9.04
-1.13
6.36
12.16
15.78
17.54
18.20
18.50
18.78
18.93
18.52
17.26
15.19
12.76
10.60
9.17
8.50
8.19
7.60
6.19
3.78
0.73
-2.23
-4.25
-4.70
-3.44
-0.82
2.39
5.34
7.37
8.21
7.98
7.04
5.79
4.52
3.37
2.35
1.46
0.73
0.27
0.12
0.31
0.72
1.22
1.60
1.73
1.59
1.32
1.20
1.56
2.66
4.48
6.77
9.08
10.96
12.15
12.64
12.59
12.25
11.78
11.25
10.67
10.08
9.48
8.90
8.21
7.15
5.41
2.72
-0.90
-5.11
-9.31
-12.79
-14.99
-15.62
-14.80
-12.93
-10.59
-8.37
-6.68
-5.67
-5.24
-5.13
-5.03
-4.73
-4.17
-3.44
-2.73
-2.16
-1.80
-1.58
-1.41
-1.20
-0.92
-0.62
-0.38
-0.31
-0.44
-0.73
-1.06
-1.32
-1.43
-1.37
-1.17
-0.92
-0.68
-0.50
-0.39
-0.35
-0.37
-0.42
-0.48
-0.54
-0.64
-0.86
-1.31
-2.07
-3.17
-4.60
-6.28
-8.01
-9.44
-10.11
-9.58
-7.65
-4.49
-0.66
3.05
5.99
7.81
8.58
8.62
8.30
7.83
7.24
6.49
5.58
4.61
3.77
3.17
2.85
2.74
2.72
2.67
2.54
2.34
2.10
1.86
1.63
1.44
1.27
1.15
1.12
1.21
1.40
1.64
1.80
1.79
1.56
1.14
0.63
0.18
-0.07
-0.01
0.34
0.82
1.11
0.82
-0.38
-2.58
-5.55
-8.76
-11.45
-12.92
-12.70
-10.73
-7.40
-3.40
0.52
3.70
5.79
6.75
6.78
6.22
5.38
4.54
3.84
3.32
2.98
2.75
2.52
2.23
1.84
1.39
0.94
0.56
0.28
0.11
0.04
0.06
0.18
0.40
0.70
1.03
1.33
1.58
1.77
1.92
2.04
2.09
2.07
1.96
1.75
1.46
1.10
0.64
0.03
-0.75
-1.71
-2.71
-3.59
-4.15
-4.24
-3.83
-3.04
-2.04
-1.03
-0.14
0.58
1.16
1.62
1.95
2.11
2.10
1.95
1.73
1.53
1.38
1.27
1.15
1.07
1.12
1.43
2.07
2.97
3.95
4.73
5.15
5.20
5.10
5.14
5.59
6.50
7.68
8.80
9.49
9.60
9.15
8.41
7.67
7.18
7.05
7.22
7.44
7.27
6.12
3.39
-1.26
-7.71
-15.20
-22.40
-27.82
-30.26
-29.36
-25.64
-20.34
-14.87
-10.34
-7.28
-5.64
-5.06
-5.14
-5.61
-6.35
-7.24
-8.17
-8.95
-9.40
-9.51
-9.38
-9.22
-9.31
-9.85
-10.89
-12.25
-13.48
-13.94
-13.04
-10.47
-6.41
-1.54
3.28
7.31
10.20
12.01
13.08
13.72
14.06
14.04
13.59
12.74
11.65
10.57
9.65
8.92
8.27
7.55
6.65
5.59
4.49
3.50
2.77
2.43
2.55
3.09
3.94
4.90
5.79
6.41
6.68
6.62
6.28
5.78
5.20
4.56
3.87
3.09
2.25
1.41
0.71
0.30
0.30
0.71
1.38
2.05
2.48
2.52
2.22
1.81
1.60
1.80
2.47
3.43
4.42
5.19
5.63
5.78
5.76
5.68
5.55
5.26
4.63
3.46
1.62
-0.90
-3.98
-7.36
-10.68
-13.53
-15.43
-16.03
-15.10
-12.77
-9.48
-5.87
-2.63
-0.25
1.15
1.73
1.82
1.73
1.63
1.50
1.29
0.95
0.54
0.11
-0.29
-0.63
-0.90
-1.05
-1.03
-0.81
-0.46
-0.07
0.22
0.36
0.42
0.53
0.79
1.22
1.76
2.27
2.60
2.67
2.44
1.94
1.27
0.60
0.15
0.10
0.54
1.34
2.22
2.78
2.63
1.54
-0.54
-3.37
-6.53
-9.40
-11.37
-11.99
-11.10
-8.98
-6.17
-3.35
-1.07
0.41
1.14
1.38
1.42
1.43
1.44
1.36
1.11
0.67
0.09
-0.55
-1.19
-1.88
-2.73
-3.83
-5.13
-6.28
-6.77
-6.00
-3.65
0.19
4.94
9.78
13.89
16.79
18.40
18.95
18.81
18.31
17.65
16.95
16.26
15.59
14.78
13.49
11.24
7.52
2.11
-4.80
-12.51
-19.86
-25.56
-28.49
-28.12
-24.68
-19.13
-12.85
-7.20
-3.06
-0.68
0.29
0.45
0.38
0.36
0.43
0.46
0.37
0.18
-0.03
-0.17
-0.22
-0.25
-0.36
-0.61
-0.97
-1.31
-1.49
-1.42
-1.15
-0.79
-0.51
-0.44
-0.60
-0.92
-1.28
-1.61
-1.88
-2.13
-2.40
-2.69
-2.98
-3.21
-3.36
-3.50
-3.72
-4.15
-4.87
-5.89
-7.06
-8.06
-8.49
-7.96
-6.32
-3.76
-0.77
1.98
3.98
5.02
5.27
5.12
4.96
4.97
5.11
5.21
5.14
4.91
4.63
4.41
4.28
4.20
4.06
3.84
3.58
3.35
3.18
3.05
2.88
2.59
2.17
1.68
1.22
0.87
0.67
0.57
0.48
0.29
-0.07
-0.63
-1.35
-2.14
-2.92
-3.59
-4.13
-4.56
-4.94
-5.36
-5.88
-6.55
-7.35
-8.15
-8.77
-8.91
-8.33
-6.89
-4.68
-2.00
0.73
3.09
4.78
5.69
5.91
5.58
4.91
4.09
3.28
2.61
2.20
2.10
2.30
2.72
3.21
3.67
3.98
4.12
4.12
4.08
4.14
4.41
4.94
5.69
6.57
7.43
8.15
8.65
8.91
8.98
8.92
8.82
8.75
8.75
8.82
8.89
8.88
8.67
8.21
7.51
6.65
5.76
4.98
4.44
4.28
4.62
5.54
7.02
8.84
10.55
11.48
10.94
8.48
4.14
-1.46
-7.28
-12.25
-15.66
-17.38
-17.81
-17.58
-17.20
-16.91
-16.67
-16.32
-15.77
-15.01
-14.03
-12.76
-11.05
-8.78
-6.01
-2.98
-0.07
2.34
3.99
4.85
5.03
4.72
4.09
3.21
2.10
0.77
-0.74
-2.32
-3.90
-5.53
-7.41
-9.89
-13.17
-17.09
-21.02
-23.91
-24.71
-22.78
-18.19
-11.80
-4.91
1.22
5.78
8.60
9.99
10.51
10.59
10.41
9.97
9.20
8.15
7.05
6.19
5.79
5.91
6.42
7.08
7.68
8.08
8.25
8.23
8.11
7.95
7.74
7.45
6.99
6.30
5.37
4.31
3.27
2.45
2.02
2.05
2.52
3.37
4.42
5.40
5.91
5.50
3.78
0.65
-3.60
-8.24
-12.33
-14.98
-15.67
-14.47
-11.90
-8.77
-5.84
-3.56
-2.05
-1.13
-0.57
-0.16
0.15
0.36
0.46
0.49
0.53
0.60
0.64
0.50
0.08
-0.64
-1.53
-2.30
-2.67
-2.44
-1.60
-0.33
1.06
2.19
2.78
2.76
2.26
1.55
0.93
0.56
0.45
0.49
0.54
0.55
0.53
0.54
0.61
0.64
0.49
0.02
-0.83
-1.97
-3.21
-4.27
-4.92
-5.01
-4.54
-3.61
-2.48
-1.40
-0.56
-0.08
0.05
-0.08
-0.35
-0.67
-0.98
-1.26
-1.55
-1.85
-2.14
-2.37
-2.47
-2.38
-2.12
-1.75
-1.40
-1.19
-1.16
-1.29
-1.43
-1.37
-0.97
-0.15
1.04
2.43
3.83
5.02
5.88
6.36
6.49
6.33
6.01
5.61
5.18
4.70
4.11
3.33
2.34
1.20
0.00
-1.09
-1.92
-2.39
-2.46
-2.17
-1.62
-0.92
-0.21
0.45
0.99
1.40
1.64
1.69
1.55
1.25
0.88
0.54
0.31
0.21
0.20
0.28
0.47
0.83
1.41
2.20
3.05
3.79
4.22
4.25
3.90
3.32
2.73
2.32
2.21
2.43
2.86
3.31
3.60
3.60
3.33
2.88
2.40
2.03
1.81
1.69
1.52
1.16
0.44
-0.71
-2.24
-3.98
-5.65
-7.01
-7.87
-8.20
-8.11
-7.77
-7.30
-6.79
-6.24
-5.68
-5.16
-4.78
-4.62
-4.71
-4.98
-5.27
-5.39
-5.19
-4.64
-3.82
-2.93
-2.17
-1.71
-1.64
-1.88
-2.24
-2.46
-2.26
-1.47
-0.10
1.64
3.45
4.98
6.00
6.44
6.39
6.01
5.47
4.84
4.18
3.51
2.91
2.47
2.27
2.28
2.36
2.34
2.10
1.63
1.08
0.63
0.43
0.50
0.77
1.11
1.40
1.60
1.69
1.68
1.55
1.30
0.95
0.56
0.21
-0.02
-0.13
-0.15
-0.14
-0.14
-0.12
-0.02
0.22
0.62
1.14
1.71
2.23
2.60
2.78
2.73
2.49
2.14
1.78
1.49
1.36
1.38
1.52
1.70
1.83
1.83
1.64
1.21
0.54
-0.36
-1.39
-2.39
-3.23
-3.83
-4.20
-4.45
-4.66
-4.88
-5.03
-4.99
-4.67
-4.06
-3.26
-2.43
-1.73
-1.24
-0.95
-0.83
-0.82
-0.90
-1.06
-1.26
-1.43
-1.47
-1.32
-0.98
-0.57
-0.28
-0.23
-0.51
-1.02
-1.60
-2.01
-2.11
-1.83
-1.20
-0.32
0.70
1.75
2.72
3.53
4.16
4.60
4.86
4.93
4.77
4.34
3.71
3.03
2.53
2.38
2.64
3.17
3.70
3.85
3.33
1.92
-0.37
-3.34
-6.51
-9.26
-10.93
-11.13
-9.82
-7.40
-4.54
-1.93
-0.04
1.01
1.39
1.37
1.19
0.97
0.68
0.29
-0.19
-0.67
-0.96
-0.93
-0.60
-0.14
0.19
0.14
-0.36
-1.09
-1.61
-1.43
-0.26
1.89
4.67
7.50
9.80
11.17
11.51
10.99
9.99
8.89
8.04
7.58
7.49
7.58
7.57
7.12
5.96
3.98
1.26
-1.89
-5.02
-7.59
-9.21
-9.70
-9.13
-7.86
-6.33
-4.95
-3.98
-3.49
-3.44
-3.70
-4.18
-4.74
-5.27
-5.64
-5.71
-5.41
-4.77
-3.96
-3.21
-2.73
-2.60
-2.82
-3.24
-3.67
-3.92
-3.82
-3.25
-2.16
-0.60
1.29
3.31
5.21
6.78
7.83
8.28
8.15
7.56
6.70
5.77
4.96
4.41
4.14
4.08
4.04
3.75
2.95
1.52
-0.42
-2.57
-4.44
-5.59
-5.73
-4.88
-3.28
-1.34
0.48
1.84
2.52
2.54
2.02
1.22
0.39
-0.30
-0.78
-1.10
-1.35
-1.57
-1.75
-1.87
-1.91
-1.89
-1.87
-1.91
-2.01
-2.12
-2.19
-2.15
-1.99
-1.73
-1.42
-1.15
-1.03
-1.17
-1.61
-2.28
-2.97
-3.45
-3.56
-3.33
-2.94
-2.68
-2.80
-3.35
-4.29
-5.45
-6.62
-7.52
-7.75
-6.90
-4.67
-1.13
3.21
7.52
10.94
12.93
13.46
12.94
11.90
10.75
9.57
8.25
6.68
4.94
3.25
1.88
0.99
0.52
0.31
0.14
-0.11
-0.44
-0.75
-0.94
-0.94
-0.76
-0.44
-0.03
0.44
1.02
1.77
2.75
3.97
5.31
6.60
7.61
8.19
8.29
8.06
7.71
7.53
7.69
8.23
8.98
9.66
9.93
9.59
8.62
7.23
5.79
4.68
4.27
4.81
6.34
8.54
10.62
11.45
9.84
5.21
-2.12
-10.81
-19.00
-25.08
-28.33
-29.10
-28.49
-27.70
-27.45
-27.88
-28.73
-29.73
-30.73
-31.63
-32.11
-31.53
-29.04
-24.05
-16.61
-7.52
1.80
9.85
15.56
18.62
19.43
18.83
17.65
16.45
15.43
14.57
13.78
13.06
12.47
12.07
11.81
11.49
10.81
9.56
7.65
5.27
2.76
0.55
-1.01
-1.74
-1.70
-1.13
-0.34
0.35
0.75
0.82
0.65
0.41
0.25
0.23
0.30
0.31
0.17
-0.14
-0.52
-0.83
-0.99
-1.07
-1.20
-1.51
-1.98
-2.45
-2.66
-2.39
-1.55
-0.26
1.24
2.66
3.80
4.54
4.90
4.99
4.91
4.79
4.68
4.61
4.59
4.60
4.63
4.70
4.75
4.66
4.22
3.22
1.60
-0.45
-2.53
-4.11
-4.79
-4.50
-3.45
-2.12
-0.94
-0.21
0.06
0.05
-0.01
0.09
0.44
1.01
1.69
2.27
2.51
2.23
1.38
0.18
-1.00
-1.72
-1.69
-0.95
0.18
1.22
1.82
1.91
1.81
2.02
3.00
4.84
7.19
9.33
10.54
10.41
9.08
7.22
5.76
5.42
6.46
8.43
10.34
10.88
8.83
3.25
-6.26
-19.30
-34.44
-49.11
-60.03
-64.18
-59.93
-47.90
-30.95
-13.17
1.62
11.27
15.69
16.33
15.08
13.28
11.44
9.52
7.51
5.76
4.82
5.05
6.29
7.81
8.78
8.56
7.09
4.96
3.11
2.46
3.52
6.16
9.67
13.02
15.33
16.19
15.82
14.88
14.15
14.10
14.74
15.64
16.18
15.82
14.34
11.79
8.45
4.68
0.81
-2.86
-6.12
-8.78
-10.74
-11.92
-12.31
-11.97
-11.02
-9.67
-8.18
-6.80
-5.71
-4.98
-4.55
-4.29
-3.98
-3.44
-2.58
-1.49
-0.54
-0.27
-1.23
-3.70
-7.48
-11.96
-16.32
-19.88
-22.27
-23.42
-23.29
-21.80
-18.76
-14.17
-8.47
-2.52
2.63
6.18
7.88
8.09
7.44
6.55
5.72
4.97
4.19
3.34
2.47
1.72
1.12
0.60
-0.01
-0.85
-1.94
-3.13
-4.19
-4.79
-4.71
-3.87
-2.36
-0.45
1.51
3.16
4.29
4.89
5.10
5.16
5.23
5.37
5.45
5.35
4.98
4.40
3.76
3.24
2.94
2.82
2.74
2.58
2.24
1.76
1.22
0.73
0.36
0.12
-0.03
-0.11
-0.12
-0.01
0.27
0.74
1.30
1.84
2.18
2.24
2.00
1.53
0.91
0.21
-0.54
-1.36
-2.23
-3.09
-3.86
-4.43
-4.73
-4.70
-4.33
-3.58
-2.45
-0.99
0.65
2.25
3.54
4.32
4.54
4.34
3.93
3.57
3.35
3.24
3.13
2.95
2.73
2.61
2.73
3.13
3.73
4.33
4.76
4.94
4.97
5.03
5.30
5.88
6.72
7.60
8.25
8.43
8.09
7.35
6.49
5.82
5.57
5.81
6.43
7.20
7.76
7.65
6.40
3.69
-0.50
-5.73
-11.19
-15.82
-18.72
-19.44
-18.08
-15.26
-11.78
-8.40
-5.65
-3.79
-2.87
-2.81
-3.43
-4.36
-5.15
-5.34
-4.64
-3.14
-1.30
0.22
0.82
0.35
-0.88
-2.18
-2.81
-2.31
-0.62
1.94
4.87
7.78
10.55
13.39
16.67
20.63
25.06
29.20
31.89
31.97
28.91
23.11
15.96
9.31
4.91
3.82
6.09
10.81
16.09
19.07
16.18
4.27
-17.66
-46.88
-76.74
-98.62
-105.38
-94.72
-70.39
-40.54
-13.90
3.91
12.19
14.13
14.01
14.60
16.10
17.01
15.93
12.84
9.17
6.90
7.38
10.66
15.56
20.28
23.19
23.52
21.61
18.75
16.69
17.01
20.52
26.94
35.01
42.86
48.62
50.94
49.41
44.66
38.15
31.82
27.57
26.87
30.28
36.90
44.05
47.24
41.13
21.27
-13.62
-59.98
-109.27
-150.01
-171.53
-167.88
-140.09
-95.68
-45.53
0.18
35.21
58.20
71.31
77.92
80.57
80.39
77.79
73.49
69.06
66.44
66.75
69.37
72.04
72.07
67.97
60.66
53.39
50.52
55.70
70.36
93.17
120.40
146.79
166.50
174.27
166.77
143.99
109.85
71.30
35.70
7.76
-12.81
-31.18
-54.95
-90.52
-140.16
-201.18
-267.41
-331.48
-386.98
-429.20
-455.08
-462.83
-451.96
-423.51
-380.18
-325.98
-265.16
-201.26
-136.71
-73.02
-11.63
45.51
95.79
136.61
166.20
184.24
191.87
191.01
183.72
171.87
157.23
141.93
128.51
119.45
116.17
118.28
123.54
128.69
130.89
128.93
123.74
117.86
114.37
115.59
122.09
132.23
142.34
147.29
141.70
121.55
85.86
37.76
-15.86
-66.05
-104.74
-127.80
-137.01
-139.50
-144.86
-160.60
-188.37
-222.68
-252.95
-267.83
-259.68
-227.19
-175.22
-112.33
-47.53
12.02
61.81
99.61
124.62
137.11
138.52
131.64
120.34
108.74
100.24
96.71
98.24
103.29
109.48
114.45
116.73
116.24
114.24
112.70
113.43
117.37
124.04
131.76
138.28
141.63
140.88
136.25
128.63
118.67
105.95
88.73
64.47
30.77
-13.56
-67.84
-129.30
-193.59
-255.80
-311.44
-357.38
-391.94
-414.47
-424.75
-422.42
-407.01
-378.47
-337.86
-287.36
-229.84
-167.99
-103.92
-39.55
22.57
78.85
125.07
157.88
176.29
182.30
180.01
173.97
167.49
162.06
157.65
153.87
150.68
148.57
148.04
149.06
150.86
152.35
152.76
152.02
150.81
150.19
151.01
153.62
157.83
163.11
168.76
173.75
176.49
174.82
166.31
148.92
121.65
84.75
39.13
-14.28
-74.67
-140.40
-207.67
-269.62
-317.29
-342.12
-338.93
-307.76
-253.64
-184.56
-108.96
-34.00
35.00
94.30
141.62
176.09
198.35
210.14
213.31
208.83
196.41
174.78
142.56
98.90
44.00
-20.15
-89.02
-155.16
-208.67
-239.06
-238.30
-203.91
-140.71
-60.43
21.04
87.77
127.66
134.99
110.89
61.92
-2.34
-71.90
-138.33
-195.74
-240.95
-273.26
-294.00
-306.14
-313.52
-319.46
-325.37
-329.94
-329.61
-320.14
-298.65
-264.77
-220.70
-169.91
-115.40
-58.68
-0.02
60.22
120.12
175.71
221.90
254.46
271.82
275.87
271.08
262.57
254.24
247.72
242.59
237.67
232.15
226.28
221.15
217.93
217.16
218.53
221.33
224.97
229.12
233.43
236.74
236.58
229.54
212.48
184.02
145.39
99.87
51.21
1.83
-47.99
-99.29
-152.58
-206.47
-257.52
-301.63
-335.75
-358.63
-370.46
-371.40
-360.68
-336.81
-298.65
-246.72
-183.61
-113.48
-40.95
29.47
93.48
146.72
184.71
203.68
201.63
179.09
138.81
84.72
20.70
-49.82
-123.39
-195.64
-260.68
-311.76
-343.02
-351.36
-337.57
-305.92
-262.29
-211.94
-157.92
-100.96
-41.32
19.49
77.56
127.27
163.32
182.91
186.80
178.61
163.04
143.78
122.66
100.05
75.80
50.31
24.97
2.01
-15.92
-26.31
-27.50
-19.23
-3.20
17.05
37.10
53.07
62.88
66.73
66.42
64.12
61.22
57.96
54.00
49.22
44.14
39.81
37.10
36.15
36.20
36.04
34.49
31.01
25.99
20.54
16.05
13.74
14.10
16.80
20.78
24.69
27.42
28.44
27.92
26.54
25.07
24.01
23.41
22.94
22.18
20.90
19.17
17.34
15.74
14.57
13.75
13.00
12.04
10.70
9.03
7.24
5.59
4.27
3.38
2.89
2.74
2.78
2.91
2.98
2.96
2.83
2.65
2.49
2.36
2.23
2.02
1.72
1.38
1.12
1.05
1.20
1.53
1.91
2.26
2.52
2.73
2.94
3.17
3.42
3.68
3.93
4.19
4.46
4.73
4.96
5.10
5.14
5.07
4.91
4.71
4.48
4.29
4.15
4.08
4.05
3.97
3.77
3.36
2.78
2.13
1.62
1.41
1.60
2.12
2.82
3.44
3.73
3.45
2.48
0.81
-1.36
-3.69
-5.78
-7.29
-8.07
-8.19
-7.90
-7.45
-7.03
-6.69
-6.36
-5.98
-5.51
-4.98
-4.45
-3.98
-3.61
-3.29
-2.95
-2.51
-1.88
-1.06
-0.14
0.72
1.34
1.62
1.54
1.18
0.68
0.17
-0.24
-0.48
-0.53
-0.48
-0.56
-1.08
-2.30
-4.33
-6.97
-9.74
-11.97
-13.08
-12.76
-11.08
-8.46
-5.50
-2.77
-0.63
0.77
1.51
1.79
1.84
1.85
1.93
2.12
2.33
2.46
2.43
2.24
2.02
1.94
2.20
2.93
4.07
5.48
6.95
8.32
9.57
10.82
12.28
14.14
16.44
19.00
21.40
23.15
23.87
23.55
22.55
21.57
21.34
22.29
24.41
27.16
29.63
30.76
29.40
24.43
15.16
1.73
-14.40
-30.43
-42.90
-48.87
-47.08
-38.52
-25.96
-12.84
-1.96
5.29
8.93
9.84
9.10
7.63
6.21
5.44
5.75
7.16
9.00
9.98
8.31
2.16
-9.95
-28.40
-51.59
-75.54
-94.33
-101.83
-94.11
-71.39
-38.46
-3.10
26.89
46.52
54.94
54.82
50.30
44.89
40.43
37.32
35.52
35.19
36.27
37.61
36.43
28.75
11.08
-17.57
-54.04
-91.15
-119.71
-131.82
-124.01
-98.70
-63.17
-26.65
3.14
22.36
31.42
33.41
31.91
29.38
26.71
23.94
21.25
19.39
19.26
21.15
24.11
26.36
26.22
22.96
17.37
11.32
6.83
5.17
6.36
9.41
12.99
16.10
18.46
20.40
22.51
25.20
28.54
32.36
36.20
39.26
40.16
37.03
28.03
12.24
-9.51
-34.58
-59.33
-80.65
-97.31
-110.14
-120.72
-129.33
-133.70
-129.53
-112.94
-83.27
-44.49
-4.22
29.39
51.03
60.10
60.13
56.32
52.68
50.64
49.31
47.11
43.27
38.43
34.10
31.53
30.96
31.53
31.83
30.69
27.83
23.99
20.56
18.94
19.81
22.71
26.08
27.86
26.39
21.22
13.41
5.13
-1.27
-4.28
-3.84
-1.15
2.11
4.68
6.26
7.38
8.64
10.00
10.57
9.17
5.33
0.03
-4.32
-4.85
0.45
11.62
26.58
42.01
54.67
62.69
66.04
66.21
65.31
65.01
66.08
68.16
69.87
68.89
62.22
46.63
19.72
-18.70
-65.40
-113.43
-153.16
-174.81
-171.68
-142.74
-93.44
-33.96
24.09
71.38
103.25
120.11
125.97
126.09
124.54
122.82
119.69
112.06
96.46
70.40
33.34
-13.05
-65.20
-118.84
-170.11
-216.27
-255.66
-286.79
-307.43
-314.44
-304.51
-275.58
-228.26
-166.49
-97.31
-29.42
28.96
72.19
98.47
109.82
110.81
106.61
101.11
95.89
90.19
82.18
70.29
54.54
37.02
21.37
11.79
11.50
21.69
41.04
66.23
93.08
118.08
139.47
157.08
171.45
182.84
190.80
194.56
193.81
189.05
181.09
170.25
155.51
134.72
105.51
66.46
17.70
-39.38
-102.79
-170.47
-240.05
-308.17
-369.84
-418.85
-449.26
-457.31
-442.83
-409.15
-361.83
-306.46
-247.01
-185.15
-121.37
-56.50
7.01
65.00
112.64
146.07
163.52
165.65
155.07
135.34
110.08
82.62
55.99
33.32
17.90
12.58
18.87
35.87
60.03
85.98
108.27
123.31
130.40
131.60
130.19
128.86
128.37
127.40
123.53
114.74
100.34
81.36
60.00
38.59
18.58
-0.41
-20.78
-46.13
-79.41
-120.81
-166.30
-207.92
-235.95
-242.29
-223.55
-182.49
-127.12
-67.98
-14.70
26.50
53.76
68.63
74.39
74.32
70.73
64.93
57.67
49.79
42.41
36.74
33.52
32.58
32.72
32.23
29.76
25.11
19.50
15.23
14.65
19.01
27.83
38.92
49.28
56.24
58.47
56.31
51.28
45.25
39.57
34.68
30.40
26.44
22.75
19.36
15.76
10.29
0.26
-16.87
-41.55
-70.56
-97.14
-113.29
-113.18
-96.05
-66.81
-33.90
-5.60
13.32
22.65
25.48
25.56
25.14
24.44
22.59
19.12
14.70
10.77
8.51
7.93
7.82
6.50
2.74
-3.61
-11.50
-19.07
-24.28
-25.55
-22.20
-14.77
-4.83
5.38
13.73
18.95
20.93
20.68
19.65
18.98
19.02
19.36
19.17
17.79
15.02
11.11
6.53
1.73
-3.06
-7.80
-12.57
-17.39
-21.97
-25.62
-27.36
-26.26
-21.95
-14.97
-6.72
0.97
6.58
9.45
9.96
9.12
7.98
7.13
6.52
5.79
4.67
3.25
1.90
1.06
0.88
1.19
1.57
1.58
1.00
-0.12
-1.46
-2.66
-3.36
-3.38
-2.71
-1.48
0.05
1.56
2.85
3.83
4.60
5.39
6.39
7.63
9.00
10.23
11.08
11.43
11.27
10.64
9.54
7.89
5.66
2.93
0.05
-2.44
-3.95
-4.04
-2.62
0.01
3.31
6.60
9.38
11.38
12.64
13.32
13.62
13.60
13.17
12.18
10.58
8.48
6.24
4.34
3.15
2.82
3.20
3.88
4.40
4.47
4.10
3.61
3.51
4.22
5.84
8.04
10.13
11.42
11.55
10.69
9.57
9.04
9.69
11.54
13.96
15.90
16.12
13.49
7.19
-2.99
-16.43
-31.38
-45.19
-54.87
-58.12
-54.27
-44.57
-31.73
-18.69
-7.59
0.89
7.13
11.86
15.37
17.31
17.11
14.78
11.22
8.10
7.10
8.96
13.07
17.68
20.75
20.98
18.40
14.33
10.68
9.05
10.12
13.63
18.89
25.04
30.71
33.59
30.50
18.71
-2.14
-28.68
-54.30
-71.65
-76.08
-67.89
-52.02
-35.36
-23.29
-17.55
-16.52
-17.51
-19.00
-21.39
-25.81
-32.23
-38.41
-40.75
-36.32
-24.75
-8.66
7.48
19.39
24.93
24.70
21.23
17.47
15.42
15.48
16.82
18.21
18.74
18.19
16.82
15.08
13.31
11.63
10.02
8.42
6.89
5.57
4.62
4.14
4.17
4.67
5.51
6.37
6.61
5.39
2.00
-3.61
-10.54
-17.14
-21.64
-22.96
-21.29
-17.88
-14.43
-12.24
-11.69
-12.43
-13.87
-15.72
-18.00
-20.66
-23.09
-24.11
-22.39
-17.24
-9.14
0.35
9.15
15.55
18.81
19.29
18.03
16.18
14.52
13.32
12.46
11.71
10.89
9.96
8.99
8.03
7.15
6.38
5.67
4.98
4.28
3.60
3.05
2.81
3.02
3.78
4.99
6.42
7.76
8.75
9.24
9.29
9.08
8.79
8.57
8.42
8.29
8.12
7.84
7.40
6.66
5.37
3.31
0.33
-3.34
-7.11
-10.11
-11.50
-10.83
-8.26
-4.53
-0.65
2.42
4.19
4.68
4.31
3.59
2.87
2.25
1.68
1.08
0.50
0.11
0.12
0.67
1.71
3.02
4.30
5.28
5.79
5.83
5.54
5.16
4.97
5.21
6.04
7.42
9.17
10.96
12.46
13.43
13.84
13.87
13.81
14.00
14.66
15.88
17.48
19.05
19.88
19.04
15.63
9.12
-0.30
-11.58
-22.94
-32.38
-38.37
-40.32
-38.67
-34.61
-29.57
-24.73
-20.72
-17.72
-15.58
-14.06
-12.88
-11.87
-10.89
-9.94
-9.19
-8.85
-9.03
-9.66
-10.42
-10.91
-10.80
-9.90
-8.21
-5.72
-2.33
2.14
7.84
14.74
22.50
30.42
37.57
42.93
45.69
45.44
42.30
36.98
30.62
24.55
20.09
18.13
18.58
19.99
19.48
13.37
-1.55
-26.19
-57.83
-90.07
-114.51
-123.83
-114.73
-89.46
-54.94
-19.89
8.60
27.26
36.89
40.62
41.65
41.63
40.58
37.88
33.56
28.88
25.80
25.81
28.97
33.81
38.03
39.68
38.12
34.28
30.12
27.67
28.15
31.65
37.23
43.37
48.21
49.84
46.37
36.42
19.71
-2.40
-26.94
-50.04
-68.20
-79.51
-84.04
-83.49
-80.24
-76.37
-73.26
-71.83
-72.83
-76.73
-83.05
-89.67
-92.90
-88.64
-74.34
-50.55
-21.23
7.66
30.52
44.31
49.30
48.25
44.65
41.01
38.24
36.03
33.76
31.20
28.64
26.47
24.79
23.34
21.66
19.36
16.46
13.38
10.74
9.14
8.91
9.98
11.90
13.95
15.40
15.71
14.79
12.93
10.75
8.86
7.62
7.06
6.90
6.76
6.38
5.62
4.46
2.77
0.32
-3.22
-7.94
-13.42
-18.70
-22.46
-23.53
-21.42
-16.60
-10.33
-4.20
0.55
3.38
4.53
4.72
4.75
5.15
6.07
7.30
8.46
9.14
9.12
8.42
7.40
6.68
6.91
8.41
10.96
13.78
15.86
16.49
15.70
14.31
13.58
14.56
17.44
21.41
25.01
26.81
26.15
23.32
19.37
15.50
12.52
10.54
9.09
7.27
3.81
-3.12
-15.79
-36.23
-64.75
-98.38
-130.43
-152.07
-155.58
-137.87
-102.38
-57.94
-15.28
17.32
36.67
44.67
45.89
44.46
42.19
38.75
33.21
25.69
17.87
12.14
10.19
11.95
15.62
18.59
18.80
15.64
10.14
4.36
0.40
-0.50
1.69
5.88
10.51
14.18
16.17
16.60
16.20
15.84
16.17
17.34
18.95
20.22
20.24
18.22
13.73
6.78
-2.05
-11.81
-21.32
-29.40
-35.02
-37.46
-36.33
-31.73
-24.31
-15.21
-5.93
2.08
7.80
10.89
11.71
11.00
9.54
7.88
6.26
4.78
3.48
2.46
1.76
1.30
0.93
0.41
-0.36
-1.35
-2.46
-3.55
-4.59
-5.56
-6.37
-6.77
-6.38
-4.83
-2.02
1.83
6.18
10.33
13.72
16.00
17.14
17.29
16.70
15.61
14.26
12.88
11.72
10.97
10.67
10.68
10.69
10.34
9.35
7.66
5.53
3.45
1.95
1.42
1.89
3.04
4.34
5.30
5.62
5.34
4.75
4.19
3.87
3.78
3.68
3.27
2.35
0.95
-0.67
-2.04
-2.72
-2.46
-1.36
0.15
1.46
2.09
1.86
1.05
0.29
0.28
1.46
3.74
6.54
9.05
10.55
10.77
9.90
8.45
6.88
5.50
4.35
3.31
2.10
0.13
-3.56
-10.28
-21.06
-35.75
-52.28
-66.71
-74.49
-72.27
-59.61
-39.40
-16.72
3.19
16.93
23.88
25.64
24.67
22.94
21.30
19.72
18.02
16.34
15.12
14.73
15.15
15.92
16.56
16.89
17.21
18.09
19.90
22.43
24.90
26.35
26.22
24.80
23.20
22.94
25.12
29.79
35.76
40.94
43.19
41.25
35.36
27.21
19.47
14.68
14.29
18.00
23.49
26.79
23.05
8.05
-20.03
-58.82
-101.25
-136.98
-155.65
-150.93
-123.26
-79.84
-31.63
11.03
42.14
61.11
71.18
76.53
79.84
81.72
81.70
79.72
76.90
75.15
75.94
79.43
84.34
88.58
90.55
90.01
88.29
87.95
91.78
101.73
118.02
138.67
159.60
175.47
181.02
172.59
149.22
112.77
67.04
16.07
-37.50
-92.96
-150.76
-210.76
-270.78
-326.43
-372.64
-405.91
-425.94
-435.40
-438.09
-436.37
-429.85
-415.80
-391.14
-354.58
-307.69
-254.00
-197.11
-139.15
-80.61
-21.66
36.16
89.25
132.76
162.58
177.33
179.04
172.23
161.97
151.92
143.53
136.36
129.35
121.94
114.57
108.25
103.82
101.31
99.87
98.21
95.23
90.51
84.47
78.05
72.17
67.30
63.26
59.45
55.23
50.31
44.90
39.55
34.81
30.96
27.87
25.15
22.30
19.09
15.57
12.15
9.35
7.58
6.94
7.21
7.87
8.34
8.23
7.46
6.24
4.98
4.07
3.71
3.85
4.26
4.64
4.71
4.35
3.60
2.67
1.85
1.43
1.58
2.30
3.36
4.42
5.09
5.18
4.71
3.97
3.40
3.39
4.09
5.33
6.74
7.84
8.33
8.12
7.38
6.41
5.53
4.96
4.67
4.34
3.33
0.85
-3.86
-11.16
-20.66
-30.97
-39.87
-44.97
-44.60
-38.51
-28.17
-16.18
-5.33
2.46
6.68
8.07
7.93
7.38
6.90
6.38
5.53
4.29
2.89
1.75
1.14
1.02
1.08
0.93
0.32
-0.70
-1.84
-2.68
-2.89
-2.35
-1.23
0.11
1.24
1.82
1.78
1.26
0.57
0.01
-0.23
-0.18
0.00
0.11
0.01
-0.30
-0.72
-1.15
-1.62
-2.23
-3.15
-4.47
-6.11
-7.77
-8.99
-9.29
-8.36
-6.18
-3.09
0.29
3.32
5.49
6.63
6.92
6.69
6.30
5.95
5.66
5.31
4.80
4.15
3.47
2.90
2.53
2.32
2.14
1.88
1.47
0.96
0.45
0.01
-0.32
-0.55
-0.70
-0.78
-0.74
-0.58
-0.34
-0.10
0.01
-0.07
-0.32
-0.66
-1.00
-1.29
-1.51
-1.72
-1.99
-2.38
-2.91
-3.52
-4.05
-4.27
-3.93
-2.88
-1.13
1.06
3.28
5.12
6.26
6.66
6.49
6.03
5.56
5.20
4.93
4.66
4.27
3.80
3.36
3.10
3.15
3.49
3.96
4.37
4.54
4.41
4.03
3.55
3.10
2.81
2.74
2.89
3.21
3.63
4.05
4.37
4.52
4.52
4.48
4.53
4.79
5.28
5.84
6.17
5.81
4.34
1.51
-2.61
-7.60
-12.66
-16.88
-19.41
-19.77
-17.91
-14.30
-9.71
-5.04
-1.07
1.66
2.97
3.02
2.25
1.31
0.76
0.97
1.91
3.16
4.09
4.15
3.21
1.64
0.19
-0.37
0.38
2.40
5.18
8.04
10.47
12.38
14.11
16.27
19.36
23.48
28.10
32.21
34.68
34.80
32.69
29.29
26.27
25.34
27.78
34.06
43.39
53.34
59.72
57.49
42.45
13.42
-26.27
-69.02
-105.24
-126.82
-130.26
-117.73
-95.65
-71.65
-51.45
-37.35
-28.62
-23.21
-19.55
-17.26
-16.85
-18.74
-22.52
-26.95
-30.57
-32.44
-32.48
-31.32
-29.45
-26.69
-22.23
-15.14
-5.09
7.15
19.89
31.08
39.14
43.38
44.03
41.95
38.26
34.09
30.42
27.96
27.00
27.32
28.25
28.84
28.09
25.20
19.70
11.54
1.32
-9.64
-19.33
-25.55
-26.61
-22.10
-13.24
-2.47
7.49
14.63
18.37
19.44
19.29
19.27
20.02
21.42
22.83
23.60
23.31
21.91
19.63
16.90
14.28
12.29
11.29
11.45
12.74
14.94
17.79
21.09
24.80
29.05
34.10
40.18
47.16
54.07
59.04
59.58
53.43
39.78
20.06
-2.25
-22.62
-37.20
-44.23
-44.82
-42.70
-43.33
-52.29
-73.50
-107.36
-149.78
-192.40
-224.61
-236.73
-223.47
-186.01
-131.70
-71.44
-16.02
27.15
55.35
69.95
74.46
72.59
67.09
59.67
51.49
43.62
37.25
33.32
31.93
32.19
32.44
31.07
27.40
22.09
16.92
13.94
14.48
18.41
24.25
29.73
32.88
32.75
29.75
25.31
21.09
18.24
16.89
16.28
15.21
12.68
8.35
2.57
-3.84
-10.12
-15.92
-21.23
-26.05
-29.96
-32.00
-31.02
-26.39
-18.58
-9.12
-0.13
6.63
10.42
11.71
11.63
11.30
11.24
11.30
11.03
10.17
8.89
7.70
7.12
7.32
8.04
8.75
8.90
8.22
6.85
5.27
4.01
3.51
3.82
4.67
5.58
6.09
6.01
5.43
4.65
3.99
3.66
3.68
3.96
4.38
4.78
5.07
5.11
4.81
4.11
3.01
1.62
0.08
-1.47
-2.87
-3.97
-4.57
-4.53
-3.80
-2.50
-0.96
0.46
1.45
1.89
1.86
1.56
1.20
0.93
0.78
0.70
0.60
0.38
-0.02
-0.58
-1.25
-1.89
-2.36
-2.56
-2.49
-2.23
-1.87
-1.46
-0.93
-0.15
0.98
2.45
4.09
5.62
6.74
7.32
7.40
7.18
6.93
6.80
6.86
7.02
7.15
7.08
6.61
5.57
3.78
1.15
-2.19
-5.82
-9.07
-11.17
-11.51
-9.92
-6.75
-2.81
0.94
3.67
5.02
5.10
4.45
3.76
3.66
4.47
6.10
8.12
9.87
10.73
10.33
8.84
6.97
5.77
6.23
8.74
12.88
17.38
20.65
21.48
19.64
16.16
12.93
11.94
14.28
19.59
26.13
31.42
33.33
31.03
25.55
19.33
15.63
17.23
25.21
38.21
52.18
60.89
57.25
35.51
-6.30
-64.46
-129.25
-187.08
-224.56
-233.13
-212.15
-168.97
-115.81
-65.02
-24.95
1.67
16.69
23.77
25.94
24.60
20.20
13.57
6.61
1.84
1.06
4.29
9.65
14.14
15.45
13.09
8.69
5.10
5.00
9.51
17.71
27.07
34.64
38.28
37.46
33.26
27.68
22.79
19.90
19.28
20.32
21.91
22.98
22.80
21.13
18.09
14.05
9.42
4.68
0.30
-3.21
-5.33
-5.77
-4.57
-2.17
0.67
3.19
4.88
5.66
5.80
5.72
5.73
5.94
6.28
6.57
6.65
6.33
5.40
3.67
1.10
-2.11
-5.47
-8.41
-10.51
-11.66
-12.06
-11.97
-11.56
-10.79
-9.51
-7.75
-5.75
-3.98
-2.87
-2.61
-3.04
-3.76
-4.38
-4.64
-4.54
-4.22
-3.85
-3.53
-3.38
-3.55
-4.23
-5.55
-7.46
-9.56
-11.19
-11.64
-10.46
-7.71
-3.95
0.01
3.37
5.69
6.93
7.27
6.96
6.14
4.87
3.24
1.52
0.05
-0.82
-0.95
-0.49
0.20
0.72
0.77
0.27
-0.71
-1.95
-3.08
-3.69
-3.33
-1.76
0.97
4.41
7.83
10.51
11.99
12.22
11.50
10.25
8.81
7.36
5.98
4.74
3.77
3.21
3.14
3.43
3.77
3.74
2.99
1.43
-0.69
-2.80
-4.16
-4.18
-2.64
0.13
3.37
6.19
7.91
8.35
7.84
7.00
6.45
6.52
7.18
8.12
8.90
9.21
8.99
8.45
7.98
7.96
8.63
9.91
11.43
12.66
13.10
12.58
11.31
9.91
9.09
9.44
11.10
13.66
16.27
17.93
17.77
15.33
10.74
4.53
-2.46
-9.34
-15.36
-20.15
-23.82
-27.04
-30.94
-36.57
-44.27
-53.01
-60.36
-63.25
-59.32
-48.18
-31.90
-14.28
0.70
10.53
14.92
15.45
14.38
13.40
13.02
12.82
12.20
10.97
9.50
8.41
8.07
8.38
8.90
9.12
8.77
7.92
6.97
6.32
6.32
7.11
8.59
10.53
12.59
14.42
15.74
16.42
16.48
16.05
15.20
13.86
11.89
9.17
5.84
2.34
-0.83
-3.47
-5.96
-9.38
-14.97
-23.41
-34.05
-44.71
-52.30
-54.04
-48.77
-37.58
-23.38
-9.72
0.71
6.95
9.72
10.60
10.92
11.18
11.09
10.20
8.49
6.53
5.17
5.02
5.99
7.35
8.21
7.92
6.44
4.31
2.35
1.20
1.12
1.90
3.02
3.94
4.27
3.92
3.09
2.11
1.35
1.02
1.15
1.59
2.10
2.45
2.54
2.38
2.06
1.68
1.31
0.93
0.55
0.15
-0.26
-0.63
-0.92
-1.09
-1.11
-0.99
-0.77
-0.54
-0.36
-0.32
-0.39
-0.50
-0.53
-0.41
-0.17
0.07
0.13
-0.13
-0.71
-1.46
-2.18
-2.67
-2.85
-2.75
-2.48
-2.17
-1.86
-1.50
-0.98
-0.21
0.78
1.89
2.92
3.69
4.12
4.25
4.19
4.10
4.05
4.02
3.89
3.58
3.08
2.47
1.89
1.39
0.95
0.45
-0.23
-1.08
-1.96
-2.62
-2.85
-2.56
-1.82
-0.86
0.07
0.80
1.28
1.54
1.65
1.71
1.74
1.74
1.71
1.60
1.40
1.11
0.77
0.42
0.10
-0.12
-0.22
-0.18
-0.01
0.26
0.61
0.95
1.23
1.40
1.46
1.46
1.47
1.51
1.55
1.53
1.37
1.06
0.64
0.20
-0.16
-0.36
-0.45
-0.52
-0.72
-1.18
-1.98
-3.09
-4.35
-5.54
-6.37
-6.60
-6.12
-4.98
-3.39
-1.66
-0.12
0.99
1.56
1.64
1.37
0.98
0.66
0.52
0.55
0.65
0.74
0.78
0.82
0.95
1.24
1.71
2.27
2.80
3.19
3.44
3.59
3.76
4.02
4.40
4.85
5.30
5.67
5.94
6.14
6.36
6.64
6.96
7.18
7.17
6.85
6.25
5.54
4.96
4.65
4.62
4.73
4.78
4.66
4.44
4.38
4.77
5.82
7.50
9.59
11.74
13.61
15.01
15.86
16.23
16.20
15.86
15.29
14.43
13.04
10.68
6.82
1.16
-6.05
-13.87
-20.82
-25.31
-26.18
-23.16
-16.87
-8.63
0.11
8.26
15.38
21.73
27.80
33.90
39.79
44.67
47.46
47.50
44.96
41.02
37.33
35.25
35.04
35.53
34.22
27.63
12.02
-15.56
-55.82
-105.91
-158.82
-204.32
-231.59
-232.85
-206.39
-157.60
-97.27
-37.85
10.54
42.80
59.03
62.88
59.07
51.58
42.96
34.62
27.44
22.10
19.04
18.13
18.55
18.94
18.06
15.44
11.70
8.38
7.33
9.91
16.29
25.26
34.58
41.76
45.07
44.26
40.67
36.52
33.61
32.05
30.11
24.94
14.21
-2.40
-22.86
-43.72
-61.80
-75.40
-84.31
-88.74
-88.24
-81.53
-67.54
-46.94
-22.84
-0.04
16.99
26.02
27.83
25.36
21.88
19.54
18.75
18.79
18.90
18.83
18.90
19.43
20.26
20.81
20.46
18.92
16.55
14.18
12.73
12.88
14.82
18.31
22.79
27.64
32.40
36.95
41.49
46.32
51.50
56.52
60.30
61.58
59.67
55.21
50.17
47.53
49.77
57.38
68.00
76.42
75.86
59.79
24.17
-30.69
-99.16
-170.94
-233.15
-273.59
-284.20
-263.48
-216.95
-155.29
-90.98
-34.66
7.29
33.33
45.59
47.96
44.38
37.99
31.14
25.65
22.87
23.53
27.32
32.87
37.87
40.14
38.61
34.07
28.93
26.28
28.50
36.17
47.68
60.01
69.92
75.22
75.48
71.93
66.84
62.70
61.48
64.05
69.79
76.37
79.74
74.82
56.90
23.28
-25.36
-84.56
-146.83
-203.27
-245.51
-267.18
-264.97
-239.16
-193.62
-135.44
-73.75
-17.79
25.27
52.05
63.45
63.65
58.11
51.51
46.50
43.64
42.22
41.27
40.20
39.01
38.01
37.40
37.12
36.88
36.28
35.09
33.47
31.97
31.40
32.48
35.47
39.97
44.91
48.96
51.04
50.70
48.16
44.07
39.15
34.04
29.36
25.74
23.59
22.48
20.63
14.85
1.46
-21.91
-54.37
-90.76
-122.68
-141.27
-140.71
-120.69
-86.56
-47.07
-10.87
16.45
33.54
42.32
45.87
46.61
45.55
42.92
39.11
35.29
33.06
33.46
36.22
39.73
41.89
41.16
37.51
32.45
28.46
27.87
31.96
40.45
51.75
63.61
74.03
81.94
87.48
91.66
95.73
100.58
106.20
111.67
115.56
116.48
113.44
106.02
94.00
77.06
54.52
25.33
-11.80
-58.12
-114.14
-178.54
-247.16
-312.74
-366.03
-398.16
-403.52
-381.51
-336.48
-275.64
-206.50
-134.89
-64.83
0.49
57.54
102.44
132.06
145.65
145.40
135.85
122.13
108.21
96.06
85.90
77.17
69.77
64.55
63.11
67.07
77.15
92.57
111.13
129.68
145.22
155.92
161.71
164.03
164.98
165.83
166.11
163.37
153.97
134.55
103.27
60.39
7.85
-51.57
-115.05
-180.09
-244.01
-303.43
-354.05
-391.22
-411.14
-411.93
-394.11
-360.12
-313.18
-256.28
-191.85
-122.36
-51.35
16.07
74.02
117.61
144.89
157.82
161.46
161.68
162.66
165.13
166.27
161.05
144.35
113.36
69.41
18.66
-28.84
-61.78
-71.43
-54.94
-16.66
33.37
83.45
124.40
152.17
167.80
175.21
178.53
180.29
181.14
180.37
176.75
168.86
155.14
134.03
104.26
64.89
15.35
-44.39
-113.30
-188.14
-262.48
-327.09
-371.99
-389.74
-378.30
-341.76
-288.37
-226.85
-163.11
-99.48
-36.23
25.83
83.65
132.41
167.39
186.08
188.69
177.10
153.06
117.20
69.66
11.48
-53.74
-119.43
-177.26
-219.22
-239.57
-235.98
-209.50
-164.10
-105.98
-42.81
17.30
67.05
101.45
119.03
122.06
115.56
105.27
95.40
87.45
80.52
72.70
62.63
50.15
35.74
19.32
-0.01
-22.97
-48.19
-71.19
-85.24
-84.22
-66.12
-34.76
1.32
32.55
52.42
59.77
58.14
52.92
48.29
45.53
43.52
40.45
35.44
29.10
22.95
18.30
15.41
13.49
11.16
7.39
2.20
-3.19
-6.81
-6.82
-2.48
5.41
14.79
23.08
28.33
29.85
28.39
25.45
22.53
20.41
19.04
17.85
16.29
14.20
11.83
9.55
7.52
5.50
2.91
-0.78
-5.60
-10.83
-15.08
-16.78
-14.94
-9.65
-2.14
5.66
11.88
15.51
16.57
15.99
14.99
14.44
14.60
15.14
15.52
15.30
14.34
12.82
11.03
9.30
7.87
6.88
6.32
6.14
6.24
6.51
6.91
7.43
8.09
8.83
9.56
10.22
10.83
11.55
12.44
13.31
13.40
11.59
6.69
-1.87
-13.65
-27.20
-40.58
-52.14
-60.98
-66.93
-69.91
-69.47
-64.65
-54.62
-39.60
-21.35
-2.91
12.53
22.84
27.72
28.50
27.26
25.70
24.59
23.89
23.26
22.62
22.16
22.07
22.12
21.52
19.25
14.59
7.55
-1.03
-9.68
-16.72
-20.65
-20.46
-15.91
-7.56
3.24
14.63
24.69
31.99
35.99
37.14
36.68
36.14
36.76
38.90
41.68
43.01
40.13
30.67
13.72
-9.61
-36.41
-62.95
-85.67
-101.81
-109.43
-107.35
-95.29
-74.32
-47.25
-18.47
7.11
25.68
35.69
38.15
35.76
31.61
28.03
26.19
26.37
28.26
31.17
34.05
35.60
34.76
31.21
25.76
20.19
16.55
16.32
19.66
25.39
31.52
36.23
38.63
39.11
39.12
40.45
44.37
51.21
60.06
69.00
75.46
76.95
71.80
59.97
43.66
26.86
14.03
8.02
8.17
9.52
3.99
-16.64
-56.94
-114.79
-181.06
-241.98
-283.58
-296.14
-276.99
-230.70
-166.98
-97.39
-32.25
21.31
59.94
83.46
93.73
93.51
85.66
72.86
57.66
42.57
29.91
21.52
18.23
19.44
23.53
28.68
33.75
38.88
45.13
53.68
65.03
78.54
92.61
105.48
115.96
123.72
128.86
131.07
129.03
120.69
104.41
80.56
52.16
23.87
-0.14
-18.80
-35.43
-56.87
-90.31
-139.46
-201.75
-268.26
-326.57
-365.08
-376.91
-361.44
-323.22
-269.09
-205.61
-137.75
-69.45
-4.82
51.18
93.54
119.08
128.08
124.48
114.33
103.25
94.54
88.71
84.56
80.55
76.04
71.44
67.62
65.30
64.64
65.34
66.93
69.04
71.57
74.61
78.22
82.19
85.90
88.29
88.11
84.42
77.15
67.54
58.01
51.34
49.39
51.67
54.65
52.20
37.27
4.71
-45.98
-109.18
-173.90
-226.71
-255.85
-254.86
-224.44
-171.76
-107.82
-43.81
11.72
54.24
82.82
98.67
103.50
98.60
84.72
62.85
34.98
4.24
-25.69
-51.71
-72.13
-86.72
-95.66
-98.51
-93.91
-80.41
-58.01
-29.18
1.27
27.74
45.90
54.25
54.23
49.15
42.56
36.91
33.31
31.72
31.54
32.01
32.42
32.16
30.78
28.12
24.17
19.21
13.80
8.73
4.97
3.42
4.59
8.29
13.62
19.35
24.37
28.11
30.57
31.99
32.56
32.22
30.92
28.89
26.72
25.11
24.31
23.80
22.44
19.15
13.66
6.97
1.03
-2.05
-0.90
4.43
12.50
21.12
28.25
32.82
35.09
36.50
38.96
43.94
51.95
62.34
73.34
82.34
86.28
82.19
68.36
45.46
17.08
-10.97
-33.08
-46.94
-55.67
-67.13
-90.10
-129.00
-180.15
-232.02
-269.50
-280.20
-259.45
-211.68
-147.73
-80.13
-18.77
31.23
69.03
96.19
114.68
125.81
130.11
127.66
118.55
103.48
83.87
61.91
40.09
20.49
4.70
-6.10
-10.80
-8.11
2.82
21.63
46.22
72.81
97.01
115.38
126.53
131.17
131.10
127.97
122.65
115.35
106.26
95.84
84.32
71.05
53.98
29.98
-4.29
-51.19
-110.83
-180.24
-253.08
-320.47
-372.66
-401.59
-403.22
-378.82
-334.13
-276.84
-213.79
-149.15
-84.87
-22.37
35.67
85.11
121.58
142.30
146.96
137.31
115.85
84.77
46.24
3.50
-38.09
-71.17
-88.30
-84.84
-61.16
-23.04
20.26
59.26
87.39
102.47
106.40
103.11
96.46
88.93
81.54
74.60
68.59
64.42
62.90
64.03
66.55
68.22
66.55
59.78
47.68
31.75
14.81
0.02
-10.19
-14.89
-14.75
-11.55
-7.39
-4.08
-2.81
-4.11
-8.08
-14.38
-22.25
-30.61
-38.23
-44.06
-47.62
-49.05
-49.07
-48.63
-48.62
-49.56
-51.35
-53.17
-53.54
-50.72
-43.36
-31.17
-15.26
2.07
18.17
30.79
38.82
42.39
42.49
40.40
37.25
33.81
30.57
27.86
25.87
24.68
24.13
23.86
23.38
22.29
20.41
17.89
15.12
12.60
10.76
9.82
9.71
10.18
10.83
11.33
11.44
11.13
10.51
9.79
9.17
8.75
8.49
8.26
7.85
7.12
6.03
4.71
3.44
2.53
2.20
2.47
3.13
3.82
4.19
4.02
3.40
2.63
2.09
2.07
2.64
3.65
4.80
5.78
6.37
6.46
6.05
5.25
4.22
3.21
2.48
2.17
2.18
2.09
1.23
-1.09
-5.17
-10.65
-16.38
-20.75
-22.31
-20.32
-15.21
-8.33
-1.46
3.93
7.24
8.70
9.03
8.97
8.88
8.79
8.64
8.43
8.27
8.12
7.64
6.16
3.07
-1.80
-7.99
-14.41
-19.74
-22.85
-23.12
-20.65
-16.11
-10.53
-5.03
-0.55
2.41
3.83
4.12
3.88
3.65
3.73
4.08
4.50
4.76
4.75
4.51
4.12
3.66
3.13
2.44
1.48
0.23
-1.12
-2.14
-2.28
-1.10
1.46
4.95
8.55
11.37
12.85
12.96
12.27
11.60
11.75
13.13
15.62
18.66
21.26
22.37
21.17
17.39
11.55
4.76
-1.68
-6.78
-10.08
-11.64
-11.60
-9.90
-6.12
0.20
9.15
19.95
31.07
40.46
46.32
47.72
44.96
39.64
34.20
31.38
33.22
40.04
49.81
58.00
58.36
44.40
11.55
-40.68
-107.39
-178.52
-241.04
-282.42
-294.34
-275.17
-230.28
-170.00
-106.29
-49.23
-4.91
24.97
42.06
49.52
50.66
48.13
44.02
39.98
37.39
37.07
39.06
42.44
45.45
46.25
43.80
38.37
31.60
25.79
22.95
23.86
27.77
32.75
36.58
37.68
35.73
31.65
27.03
23.39
21.49
21.09
21.28
20.97
19.51
16.91
13.72
10.71
8.47
7.15
6.49
6.04
5.46
4.64
3.70
2.90
2.41
2.23
2.20
2.17
2.00
1.75
1.56
1.57
1.80
2.15
2.42
2.41
2.03
1.38
0.66
0.12
-0.04
0.21
0.80
1.53
2.23
2.80
3.26
3.71
4.28
5.08
6.14
7.39
8.69
9.86
10.73
11.18
11.22
10.98
10.70
10.68
11.20
12.31
13.82
15.18
15.64
14.50
11.38
6.50
0.70
-4.76
-8.61
-9.97
-8.68
-5.23
-0.54
4.44
9.00
12.83
15.97
18.67
21.24
23.96
27.01
30.39
33.92
37.28
40.16
42.40
44.13
45.72
47.63
50.17
53.42
57.26
61.62
66.63
72.60
79.70
87.48
94.69
99.77
101.71
100.91
99.00
97.82
97.86
97.11
91.42
76.08
47.89
6.50
-45.74
-105.23
-168.55
-233.09
-296.28
-354.31
-401.70
-432.19
-440.87
-426.23
-390.79
-339.98
-279.83
-215.05
-148.38
-81.51
-16.76
42.09
90.37
124.28
142.65
147.68
143.79
135.66
126.32
116.55
105.67
92.99
79.15
66.33
57.50
55.01
59.48
69.41
81.74
93.05
100.86
104.55
105.29
105.34
106.92
111.04
116.95
122.21
123.24
116.30
98.43
68.39
27.24
-21.70
-73.65
-123.79
-168.55
-205.89
-234.57
-252.82
-257.56
-244.96
-212.54
-161.51
-97.95
-31.78
26.45
69.10
93.96
104.22
106.11
105.71
106.59
108.98
110.63
108.44
99.97
84.32
62.47
37.22
12.72
-6.23
-15.45
-12.68
1.59
24.23
50.67
76.42
98.26
114.76
125.91
132.60
136.09
137.65
138.18
137.71
134.92
127.23
111.50
85.13
46.93
-2.48
-61.20
-126.62
-195.53
-263.84
-326.17
-376.03
-407.18
-415.43
-400.26
-364.96
-315.23
-256.97
-194.53
-130.48
-66.65
-5.56
48.96
92.56
122.08
137.10
140.11
135.31
126.69
116.58
105.45
92.98
79.27
65.59
54.11
46.86
44.72
47.03
52.04
57.78
63.00
67.43
71.59
76.04
80.73
84.81
86.93
85.88
81.28
73.70
64.59
55.72
48.64
44.15
41.78
39.28
32.46
16.16
-13.71
-57.55
-110.13
-160.89
-196.94
-207.76
-189.55
-146.98
-91.25
-35.60
9.59
39.57
55.15
60.19
58.79
53.53
45.47
35.24
24.03
13.73
6.15
1.96
0.32
-0.76
-3.21
-7.76
-13.45
-18.10
-19.33
-15.69
-7.36
3.86
15.30
24.31
29.17
29.51
26.27
21.22
16.27
12.78
11.07
10.51
9.87
8.00
4.33
-0.91
-7.13
-13.92
-21.26
-29.21
-37.19
-43.50
-45.68
-41.58
-30.75
-15.10
1.70
15.72
24.48
27.80
27.42
25.73
24.40
23.84
23.44
22.42
20.54
18.20
16.12
14.84
14.34
14.20
13.83
12.85
11.31
9.59
8.24
7.68
8.03
9.04
10.25
11.17
11.52
11.24
10.50
9.57
8.73
8.15
7.88
7.85
7.89
7.83
7.57
7.12
6.50
5.70
4.47
2.37
-0.96
-5.51
-10.56
-14.79
-16.80
-15.70
-11.65
-5.86
-0.03
4.35
6.62
7.05
6.53
6.06
6.29
7.42
9.16
10.92
11.88
11.22
8.27
2.79
-4.88
-13.74
-22.42
-29.44
-33.56
-34.10
-31.04
-24.99
-17.10
-8.79
-1.40
4.11
7.35
8.54
8.28
7.31
6.26
5.56
5.46
6.00
6.99
8.05
8.63
8.20
6.41
3.22
-1.03
-5.64
-9.68
-12.19
-12.46
-10.23
-5.86
-0.24
5.48
10.28
13.62
15.42
15.95
15.52
14.28
12.17
9.09
5.01
0.11
-5.28
-10.74
-15.88
-20.40
-24.13
-26.95
-28.78
-29.43
-28.56
-25.78
-20.91
-14.17
-6.28
1.64
8.46
13.36
16.14
17.11
16.89
16.12
15.31
14.72
14.49
14.75
15.53
16.74
18.01
18.65
17.75
14.59
9.05
1.97
-4.89
-9.44
-10.01
-6.20
1.01
9.64
17.56
23.33
26.59
27.95
28.43
29.03
30.35
32.55
35.34
38.01
39.56
39.03
35.95
30.63
24.24
18.28
14.08
12.39
13.40
17.04
23.33
32.32
43.78
56.81
69.81
80.93
89.04
94.36
98.41
102.95
108.61
113.77
114.73
106.93
86.84
53.37
7.92
-46.69
-107.72
-173.10
-240.76
-307.00
-365.71
-409.02
-429.76
-424.38
-394.51
-346.16
-286.96
-223.18
-158.33
-93.91
-31.37
26.20
74.19
108.17
126.11
129.52
122.89
111.63
100.13
90.51
82.84
76.10
69.37
62.50
56.11
51.19
48.65
48.89
51.63
55.86
60.12
63.00
63.60
61.87
58.45
54.34
50.34
46.72
43.38
40.06
36.71
33.35
29.82
25.39
18.92
9.39
-3.11
-16.83
-28.57
-34.84
-33.47
-24.66
-11.03
3.55
15.59
23.30
26.78
27.46
26.95
26.30
25.84
25.55
25.48
25.81
26.64
27.70
28.29
27.64
25.41
21.91
18.10
15.10
13.85
14.79
17.95
23.01
29.53
36.97
44.68
52.12
58.89
64.91
70.36
75.46
80.11
83.85
86.12
86.56
85.48
83.51
80.98
77.13
69.68
54.89
28.41
-13.10
-70.09
-138.60
-209.97
-272.41
-314.09
-326.59
-307.45
-260.55
-194.53
-120.03
-46.94
17.36
68.57
105.17
127.90
139.03
141.44
137.53
128.14
111.90
85.67
46.20
-7.50
-72.37
-140.68
-201.51
-243.65
-258.86
-244.19
-202.58
-141.76
-71.76
-2.48
58.05
104.64
135.01
149.52
150.94
143.88
133.96
126.30
124.13
127.58
133.60
136.96
131.60
112.42
76.42
23.38
-43.75
-118.83
-193.06
-256.20
-298.62
-313.77
-299.71
-259.55
-200.24
-130.61
-59.35
6.29
61.00
101.55
126.97
138.79
140.65
137.33
133.16
130.70
130.31
130.94
131.32
130.79
129.69
128.91
129.34
131.64
136.16
142.80
150.51
156.90
158.42
151.69
135.33
111.42
85.11
62.35
46.73
37.22
28.19
11.91
-17.83
-62.80
-119.66
-181.66
-241.66
-294.54
-337.89
-370.92
-392.94
-402.28
-396.60
-374.20
-335.52
-283.55
-223.02
-158.76
-94.34
-31.71
27.84
82.45
129.00
163.85
184.26
189.83
182.69
166.67
145.78
123.33
101.84
83.66
71.33
67.17
72.25
85.36
103.08
121.06
135.92
146.32
152.74
156.32
157.49
155.48
148.75
135.91
116.17
89.15
54.76
13.28
-33.81
-83.00
-129.06
-166.88
-193.92
-211.71
-224.95
-238.48
-253.79
-267.32
-271.84
-259.90
-227.66
-176.79
-113.93
-48.18
11.94
60.77
96.15
118.85
131.32
136.48
136.71
133.40
127.07
117.84
106.15
93.20
80.83
70.65
63.39
58.73
55.89
54.54
55.45
60.04
69.50
83.60
100.27
116.32
128.89
136.84
141.04
143.57
145.83
147.18
144.63
133.89
111.28
75.33
27.52
-28.52
-88.55
-149.31
-209.06
-266.76
-320.49
-366.31
-398.59
-411.76
-402.71
-372.34
-325.18
-267.44
-204.69
-140.58
-77.23
-16.71
37.76
82.02
112.44
127.76
129.89
123.08
112.02
100.17
88.97
78.37
67.81
57.21
47.29
39.29
34.43
33.41
36.17
41.80
48.70
55.01
59.21
60.49
59.01
55.60
51.26
46.67
41.93
36.79
31.04
24.83
18.67
13.18
8.72
5.10
1.66
-2.36
-7.19
-12.16
-15.77
-16.31
-12.81
-5.69
3.23
11.46
16.92
18.81
17.77
15.35
13.10
11.80
11.31
10.95
10.05
8.47
6.55
4.92
4.01
3.88
4.17
4.34
3.93
2.85
1.45
0.39
0.31
1.58
4.06
7.13
10.01
12.07
13.11
13.36
13.31
13.39
13.74
14.23
14.56
14.50
14.05
13.33
12.48
11.49
10.16
8.24
5.62
2.53
-0.55
-3.02
-4.39
-4.53
-3.62
-2.13
-0.53
0.78
1.63
2.06
2.19
2.22
2.34
2.69
3.36
4.31
5.31
5.91
5.61
4.03
1.12
-2.75
-6.91
-10.60
-13.25
-14.61
-14.74
-13.84
-12.15
-9.87
-7.23
-4.54
-2.19
-0.49
0.40
0.58
0.35
0.00
-0.23
-0.24
-0.08
0.18
0.39
0.40
-0.03
-1.11
-2.99
-5.63
-8.72
-11.69
-13.83
-14.54
-13.53
-10.98
-7.48
-3.83
-0.73
1.42
2.59
3.03
3.04
2.88
2.68
2.45
2.19
1.92
1.62
1.30
0.93
0.55
0.25
0.16
0.31
0.56
0.68
0.48
0.05
-0.16
0.54
2.75
6.63
11.69
16.92
21.12
23.44
23.63
22.18
20.03
18.21
17.42
17.91
19.47
21.43
22.77
22.20
18.30
10.11
-2.29
-17.10
-30.93
-39.67
-40.10
-31.34
-15.41
3.53
21.02
34.06
42.05
46.42
49.37
52.51
56.23
60.02
63.24
65.69
67.73
69.80
72.01
73.94
74.95
74.70
73.41
72.00
71.84
74.26
80.08
89.52
102.24
117.51
134.19
150.52
163.81
170.63
167.48
151.87
123.36
83.78
36.38
-15.59
-70.04
-126.22
-183.69
-241.03
-295.40
-343.23
-381.78
-410.21
-429.40
-440.56
-443.75
-437.25
-418.58
-386.19
-340.84
-285.63
-224.62
-161.24
-97.55
-34.83
25.16
79.43
124.21
156.44
175.11
181.96
180.57
174.87
167.79
160.75
154.00
147.56
141.88
137.89
136.49
137.88
141.23
144.91
147.20
147.04
144.60
141.44
139.70
141.06
145.41
150.28
151.18
143.05
121.97
86.44
37.80
-20.42
-83.64
-147.41
-207.88
-261.83
-306.14
-337.50
-352.75
-349.55
-327.26
-287.35
-233.42
-170.62
-105.01
-42.72
10.96
52.33
79.92
94.55
98.97
96.85
91.67
85.87
80.51
75.68
71.13
66.88
63.10
59.94
57.26
54.61
51.60
48.22
44.93
42.45
41.40
41.89
43.44
45.13
45.97
45.26
42.81
38.98
34.51
30.27
26.96
24.93
24.11
24.04
24.02
23.31
21.34
17.85
13.00
7.40
2.04
-1.92
-3.50
-2.26
1.53
6.87
12.45
17.10
20.18
21.77
22.52
23.26
24.67
27.00
30.01
33.08
35.45
36.51
36.07
34.46
32.47
31.02
30.80
31.95
34.17
37.04
40.45
44.67
50.24
57.45
65.95
74.79
82.90
89.67
95.29
100.48
105.58
109.83
111.04
106.05
91.89
66.86
30.94
-14.49
-67.51
-126.30
-189.04
-253.32
-315.18
-369.03
-408.49
-428.15
-425.36
-401.15
-359.55
-305.95
-245.29
-181.17
-116.15
-52.93
4.88
53.00
87.81
107.85
114.58
111.79
103.98
94.73
85.62
76.66
67.25
57.33
47.89
40.68
37.35
38.66
44.06
51.81
59.69
65.66
68.60
68.51
66.24
62.96
59.59
56.46
53.38
49.98
46.13
42.06
38.29
35.32
33.25
31.76
30.20
27.94
24.75
20.84
16.84
13.47
11.25
10.29
10.31
10.78
11.16
11.04
10.28
8.99
7.47
6.13
5.35
5.30
5.86
6.65
7.11
6.79
5.51
3.58
1.63
0.45
0.60
2.14
4.54
6.88
8.26
8.19
6.88
5.12
3.99
4.32
6.28
9.29
12.23
13.97
13.86
11.97
9.02
5.98
3.62
2.37
2.21
2.78
3.30
2.43
-1.67
-10.81
-25.53
-44.08
-62.19
-74.30
-75.83
-65.46
-45.96
-23.08
-2.93
10.56
16.85
18.16
17.53
17.02
16.99
16.64
15.15
12.53
9.58
7.31
6.26
6.17
6.27
5.75
4.17
1.67
-1.09
-3.29
-4.16
-3.35
-1.01
2.22
5.43
7.78
8.84
8.68
7.78
6.73
5.97
5.64
5.68
5.94
6.39
7.04
7.83
8.43
8.14
6.09
1.48
-5.89
-15.21
-24.59
-31.56
-33.92
-30.68
-22.58
-11.85
-1.27
6.87
11.62
13.37
13.32
12.65
12.04
11.59
11.13
10.57
9.96
9.29
8.34
6.69
3.97
0.20
-4.19
-8.45
-11.86
-13.90
-14.37
-13.26
-10.68
-6.84
-2.15
2.76
7.12
10.22
11.68
11.57
10.37
8.72
7.15
5.86
4.87
4.06
3.34
2.59
1.46
-0.81
-5.21
-12.38
-21.91
-31.89
-39.31
-41.22
-36.19
-25.14
-11.06
2.26
11.93
16.96
18.25
17.62
16.65
16.05
15.67
15.18
14.49
13.89
13.76
14.21
14.98
15.66
15.99
16.01
15.97
16.13
16.52
16.95
17.18
17.17
17.20
17.75
19.21
21.60
24.38
26.71
27.83
27.53
26.30
25.15
24.91
25.72
26.65
26.06
22.11
13.28
-1.34
-22.16
-48.80
-79.50
-110.36
-135.33
-147.57
-142.08
-118.27
-80.94
-38.95
-1.74
24.17
37.24
40.34
38.36
35.45
33.48
32.22
30.55
27.68
23.54
18.47
12.56
5.47
-3.21
-13.48
-24.38
-34.10
-40.35
-41.23
-35.93
-25.17
-11.12
3.30
15.29
23.09
26.41
26.34
24.73
23.25
22.70
22.76
22.22
19.78
14.77
7.51
-0.76
-8.52
-14.72
-19.22
-22.62
-25.65
-28.34
-29.76
-28.40
-23.13
-14.09
-2.91
7.88
15.95
20.16
20.86
19.49
17.67
16.43
16.00
15.97
15.82
15.14
13.71
11.46
8.35
4.53
0.33
-3.78
-7.43
-10.35
-12.43
-13.50
-13.28
-11.40
-7.76
-2.71
2.82
7.64
10.78
11.90
11.37
9.99
8.48
7.24
6.13
4.79
2.92
0.50
-2.18
-4.82
-7.33
-10.10
-13.74
-18.65
-24.42
-29.57
-32.01
-29.91
-22.76
-11.82
0.24
10.51
17.05
19.53
19.09
17.49
16.15
15.67
15.89
16.30
16.44
16.05
15.03
13.36
11.17
8.78
6.72
5.48
5.29
5.92
6.77
7.23
7.05
6.55
6.54
7.86
10.86
15.05
19.20
21.85
21.93
19.40
15.24
11.04
8.19
7.43
8.63
10.98
12.96
12.32
6.12
-8.69
-33.74
-67.41
-103.85
-133.92
-148.30
-141.41
-114.24
-74.15
-31.92
2.80
24.99
35.11
37.27
36.13
34.49
32.71
29.87
25.39
20.04
15.73
14.26
16.25
20.64
25.21
27.68
26.75
22.71
17.24
12.66
10.85
12.49
16.79
21.95
25.94
27.44
26.27
23.24
19.57
16.23
13.55
11.27
8.98
6.46
3.79
1.16
-1.52
-4.75
-9.16
-14.86
-20.88
-25.13
-25.12
-19.12
-7.11
8.92
25.80
40.52
51.42
58.56
63.27
66.93
70.16
72.58
73.29
71.82
68.56
64.77
62.00
61.35
63.04
66.38
70.24
73.50
75.68
77.13
78.98
82.70
89.66
100.58
115.15
131.77
147.54
158.64
161.16
152.11
130.39
97.12
55.04
7.33
-43.78
-97.65
-154.54
-214.27
-274.95
-332.83
-383.38
-422.83
-449.34
-462.86
-464.20
-453.94
-432.08
-398.58
-354.20
-300.96
-241.66
-179.12
-115.63
-53.24
5.57
57.49
98.88
127.07
141.56
144.35
139.12
129.66
118.66
107.26
95.54
83.56
72.01
62.31
56.01
54.08
56.35
61.59
67.93
73.61
77.52
79.52
80.22
80.37
80.36
79.96
78.46
75.19
70.03
63.57
56.88
51.00
46.47
43.15
40.37
37.35
33.53
28.82
23.60
18.54
14.32
11.39
9.80
9.23
9.10
8.85
8.15
6.99
5.65
4.51
3.83
3.63
3.66
3.58
3.15
2.38
1.47
0.73
0.37
0.37
0.54
0.63
0.47
0.10
-0.29
-0.48
-0.30
0.24
0.99
1.77
2.41
2.86
3.09
3.14
3.06
2.89
2.69
2.53
2.46
2.48
2.52
2.51
2.37
2.09
1.70
1.20
0.60
-0.13
-0.98
-1.86
-2.60
-3.04
-3.14
-2.98
-2.73
-2.54
-2.46
-2.41
-2.25
-1.89
-1.37
-0.84
-0.48
-0.39
-0.57
-0.94
-1.41
-1.87
-2.27
-2.58
-2.73
-2.66
-2.37
-1.87
-1.28
-0.69
-0.19
0.20
0.58
1.06
1.72
2.58
3.50
4.28
4.73
4.74
4.34
3.74
3.19
2.93
3.07
3.57
4.28
4.94
5.26
4.97
3.86
1.91
-0.61
-3.21
-5.26
-6.27
-6.06
-4.84
-3.13
-1.47
-0.23
0.52
0.93
1.22
1.54
1.87
2.01
1.74
0.84
-0.75
-2.95
-5.56
-8.31
-10.95
-13.33
-15.34
-16.87
-17.72
-17.69
-16.61
-14.58
-12.03
-9.64
-8.08
-7.68
-8.26
-9.31
-10.16
-10.42
-10.10
-9.57
-9.39
-10.03
-11.76
-14.50
-17.62
-19.98
-20.07
-16.57
-8.99
1.80
13.77
24.41
31.73
35.10
35.22
33.59
31.63
30.03
28.68
27.15
25.11
22.62
19.95
17.31
14.65
11.67
8.13
3.97
-0.54
-4.84
-8.39
-10.80
-12.01
-12.32
-12.17
-11.99
-11.97
-11.95
-11.57
-10.40
-8.25
-5.23
-1.78
1.57
4.35
6.35
7.55
8.15
8.34
8.30
8.14
7.93
7.75
7.67
7.77
8.02
8.32
8.53
8.56
8.43
8.30
8.35
8.73
9.40
10.20
10.93
11.45
11.79
12.12
12.67
13.59
14.93
16.58
18.24
19.45
19.64
18.24
14.90
9.64
3.00
-4.05
-10.45
-15.36
-18.42
-19.72
-19.58
-18.23
-15.70
-11.90
-6.94
-1.29
4.14
8.43
11.04
12.12
12.50
13.26
15.10
17.94
20.98
23.08
23.38
21.60
17.83
12.22
4.73
-4.53
-14.65
-23.41
-27.69
-24.60
-12.98
5.65
27.55
48.14
63.86
73.28
77.07
77.03
75.13
73.03
72.03
73.24
77.09
82.44
85.89
82.12
65.53
32.73
-15.38
-72.87
-129.95
-175.48
-199.93
-197.76
-168.52
-116.78
-50.88
18.76
81.50
128.49
154.50
159.26
147.42
126.77
105.30
88.02
75.19
62.73
44.60
15.59
-26.66
-81.28
-145.22
-214.21
-283.26
-346.42
-396.92
-428.04
-435.15
-417.54
-379.01
-326.36
-266.81
-205.52
-144.68
-84.61
-25.67
30.12
79.03
117.02
141.65
153.27
154.80
150.36
143.56
136.45
129.59
122.85
116.37
110.89
107.31
105.96
106.14
106.32
104.84
100.81
94.55
87.47
81.45
77.90
77.13
78.30
79.80
80.05
78.14
74.15
68.81
63.00
57.14
51.00
43.69
33.96
20.28
1.29
-23.45
-52.35
-81.19
-103.52
-112.67
-104.60
-79.91
-44.11
-5.77
26.43
46.33
51.56
43.25
24.84
0.88
-23.97
-45.50
-60.79
-68.94
-71.21
-70.25
-68.58
-67.06
-64.47
-58.45
-47.14
-30.44
-10.19
10.73
29.76
45.55
58.16
68.51
77.61
85.83
92.88
98.04
100.65
100.52
98.14
94.61
91.34
89.52
89.87
92.14
95.14
96.87
94.75
85.70
66.43
34.08
-12.11
-69.17
-129.36
-181.41
-213.96
-220.09
-200.33
-162.43
-117.79
-76.34
-42.98
-17.08
4.81
25.48
44.96
60.99
71.33
75.84
76.92
77.95
81.28
86.86
92.78
96.68
97.70
97.27
98.72
105.91
121.41
144.98
173.01
199.13
216.16
218.31
203.01
171.40
127.34
75.42
19.18
-39.45
-99.55
-159.59
-216.58
-266.18
-304.30
-328.87
-341.22
-345.77
-348.22
-353.02
-361.28
-370.20
-374.24
-367.55
-346.51
-311.04
-264.30
-210.92
-154.74
-97.42
-38.59
22.44
84.62
144.18
195.39
232.36
251.05
250.31
231.60
198.20
154.27
104.73
55.37
13.06
-14.99
-22.91
-8.28
26.48
74.31
125.50
170.60
203.24
221.43
227.25
225.10
219.68
214.32
210.30
207.06
202.72
194.67
180.09
156.64
123.17
80.07
28.90
-28.53
-91.05
-158.02
-227.99
-297.18
-358.77
-404.10
-425.60
-419.59
-387.72
-336.05
-272.46
-204.14
-136.33
-72.84
-17.14
26.99
56.24
69.39
68.36
58.01
44.33
32.04
23.02
16.48
10.59
4.65
0.34
1.28
11.13
31.39
60.17
92.62
122.87
146.30
161.24
168.86
171.94
173.10
173.68
173.70
172.68
170.60
168.21
166.60
166.29
166.43
164.66
157.46
141.00
112.03
68.75
11.73
-55.25
-124.89
-187.29
-232.12
-251.34
-241.38
-203.86
-144.80
-72.80
2.80
73.16
130.86
170.53
189.44
187.96
169.29
138.14
98.95
54.58
6.20
-45.67
-99.75
-153.15
-201.59
-240.32
-265.22
-273.58
-264.16
-237.09
-193.51
-135.58
-67.00
6.59
77.94
139.50
185.34
212.92
223.41
220.45
208.04
188.51
161.91
126.77
81.71
26.81
-35.79
-102.43
-168.89
-231.24
-286.40
-332.12
-366.81
-389.21
-398.44
-393.78
-375.10
-343.31
-300.64
-250.28
-195.47
-138.54
-80.72
-22.84
33.52
85.25
128.20
158.71
175.33
179.45
174.75
165.58
155.43
146.14
138.04
130.75
123.97
117.71
112.17
107.53
103.67
100.35
97.30
94.37
91.51
88.84
86.45
84.19
81.40
76.90
69.34
57.84
42.74
25.76
9.61
-3.06
-10.77
-13.76
-14.00
-14.50
-18.18
-26.57
-38.88
-51.86
-60.78
-61.33
-51.61
-33.25
-10.91
9.64
24.06
30.97
31.98
30.11
27.97
26.56
25.48
23.95
21.70
19.21
17.12
15.57
13.89
11.02
6.12
-0.82
-8.80
-16.03
-20.61
-21.17
-17.35
-10.04
-1.09
7.30
13.37
16.39
16.73
15.53
14.04
13.01
12.54
12.24
11.71
10.82
9.79
9.06
8.85
9.05
9.10
8.15
5.34
0.25
-6.80
-14.60
-21.24
-24.76
-23.88
-18.53
-9.92
-0.10
8.90
15.69
19.85
21.72
22.02
21.52
20.85
20.56
21.08
22.59
24.77
26.76
27.47
26.10
22.75
18.51
15.14
14.29
16.69
21.79
27.93
33.12
35.90
36.08
34.76
33.78
34.84
38.74
45.06
52.47
59.29
63.98
65.13
61.55
52.39
37.68
18.86
-1.51
-21.10
-39.67
-60.14
-87.45
-125.46
-173.36
-224.01
-265.47
-285.43
-276.34
-238.62
-180.38
-114.00
-51.50
-1.08
34.15
55.14
64.85
66.48
62.54
54.82
44.87
34.31
24.86
17.90
13.99
12.45
11.63
9.89
6.48
2.27
-0.62
0.08
5.65
15.46
27.16
37.64
44.30
46.04
43.44
38.30
32.72
28.31
25.72
24.69
24.46
24.18
23.30
21.69
19.59
17.37
15.31
13.46
11.73
10.04
8.52
7.56
7.61
8.94
11.38
14.43
17.37
19.61
20.86
21.17
20.90
20.48
20.37
20.83
21.85
23.02
23.39
21.75
16.97
8.55
-2.86
-15.54
-27.09
-35.23
-38.48
-36.57
-30.35
-21.29
-10.98
-0.64
9.04
17.77
25.44
31.93
37.12
40.92
43.24
43.90
42.41
38.08
30.33
19.27
6.19
-6.63
-16.84
-23.56
-28.31
-34.66
-46.07
-63.13
-81.92
-94.91
-94.28
-76.07
-42.68
-2.18
35.23
61.64
74.37
75.98
71.87
67.17
64.60
64.54
66.17
68.56
70.81
71.13
66.15
51.47
23.66
-17.13
-65.38
-110.73
-140.85
-146.00
-122.90
-76.33
-17.31
40.96
87.81
118.22
133.24
138.00
138.46
138.66
139.22
137.83
130.69
114.41
87.17
48.98
1.33
-53.38
-112.35
-172.53
-230.59
-282.87
-325.34
-354.05
-365.76
-358.77
-333.44
-292.10
-238.55
-177.29
-112.94
-49.90
7.77
56.46
93.39
117.18
128.28
128.88
122.16
111.19
97.98
83.41
67.72
51.41
35.64
22.21
12.96
9.13
10.89
17.49
27.58
39.70
52.65
65.59
77.76
88.28
96.00
99.62
98.10
91.02
78.97
63.57
47.26
32.65
21.81
15.51
12.47
9.20
0.74
-17.53
-47.34
-85.60
-124.13
-152.03
-159.87
-143.78
-107.43
-60.55
-14.90
20.44
41.87
51.20
53.09
51.98
50.19
47.98
44.86
40.93
37.08
34.40
33.26
32.88
31.94
29.38
25.22
20.55
16.99
15.85
17.58
21.60
26.78
31.92
36.30
39.80
42.75
45.63
48.84
52.46
55.98
58.10
56.89
50.22
36.85
17.38
-5.44
-27.64
-46.19
-61.02
-75.60
-95.06
-122.81
-157.21
-190.73
-212.36
-212.46
-187.41
-141.65
-85.85
-32.36
9.54
36.41
50.22
55.66
57.03
56.41
53.86
48.84
41.69
34.08
28.40
26.44
28.28
32.24
35.70
36.44
33.57
27.89
21.41
16.46
14.66
16.38
20.68
25.79
29.86
31.70
31.07
28.69
25.70
23.03
21.04
19.43
17.62
15.25
12.47
9.81
7.72
5.96
3.39
-1.66
-10.46
-22.88
-36.87
-48.85
-55.07
-53.19
-43.41
-28.43
-12.36
1.02
9.56
13.24
13.63
12.77
12.15
12.34
13.08
13.79
14.04
13.75
13.19
12.79
12.95
13.93
15.64
17.67
19.38
20.12
19.62
18.27
17.04
17.17
19.53
24.13
29.94
35.27
38.40
38.33
35.13
29.84
24.06
19.44
17.31
18.38
22.37
27.44
29.98
25.19
8.55
-21.91
-63.69
-109.25
-147.82
-168.93
-166.52
-141.29
-100.49
-54.83
-14.39
14.72
31.43
38.45
39.84
38.79
36.81
34.11
30.66
26.85
23.53
21.37
20.39
19.90
18.95
16.95
14.10
11.36
10.07
11.32
15.47
21.88
29.28
36.26
41.92
46.26
50.04
54.14
58.86
63.44
66.15
65.15
59.49
50.09
39.67
31.76
28.95
31.06
34.20
31.26
14.34
-21.61
-75.65
-139.58
-199.68
-240.95
-252.24
-230.15
-179.95
-113.51
-45.29
11.95
50.19
67.16
65.66
51.56
31.74
12.12
-3.42
-13.44
-18.45
-20.06
-19.96
-19.02
-17.25
-13.93
-8.16
0.51
11.69
24.13
36.22
46.63
54.80
61.14
66.53
71.61
76.29
79.81
81.26
80.03
76.03
69.36
60.24
49.09
36.89
25.33
16.12
9.39
2.42
-10.22
-34.25
-72.05
-119.71
-166.81
-199.75
-207.25
-185.25
-138.74
-79.49
-21.00
26.51
58.85
77.44
86.52
90.07
90.18
87.29
81.27
72.55
62.31
51.81
41.60
31.39
20.49
8.96
-1.59
-8.19
-7.54
2.52
21.85
47.69
75.50
100.32
118.37
128.08
130.46
128.50
125.70
124.45
124.66
123.48
116.35
98.77
68.01
24.00
-30.96
-93.27
-159.17
-225.03
-287.01
-340.63
-380.74
-402.58
-403.27
-382.99
-344.89
-293.80
-234.57
-171.05
-106.25
-43.08
14.76
63.02
98.07
118.39
125.31
122.54
114.55
104.92
95.30
85.84
76.16
66.23
56.73
48.64
42.69
39.06
37.49
37.63
39.17
41.84
45.24
48.79
51.85
53.85
54.42
53.22
49.92
44.19
36.02
25.91
15.10
5.12
-2.76
-8.05
-11.29
-13.78
-16.98
-21.69
-27.50
-32.66
-34.69
-31.43
-22.11
-8.01
7.90
22.06
31.73
36.11
36.34
34.63
32.97
32.18
31.77
30.59
27.75
23.19
17.66
12.22
7.65
4.15
1.42
-1.20
-4.18
-7.53
-10.74
-12.86
-12.90
-10.33
-5.40
0.82
6.81
11.16
13.16
12.98
11.50
9.82
8.76
8.63
9.28
10.35
11.51
12.36
12.38
10.79
6.71
-0.29
-9.58
-19.22
-26.35
-28.18
-23.32
-12.46
1.76
15.83
26.76
33.13
35.29
34.72
33.02
31.22
29.56
27.84
25.80
23.42
20.79
17.91
14.56
10.38
5.09
-1.29
-8.29
-14.90
-19.65
-21.01
-17.75
-9.52
2.85
17.41
31.67
43.31
50.93
54.37
54.56
53.04
51.59
51.85
54.87
60.70
67.77
72.63
70.25
55.43
24.58
-22.55
-82.17
-146.88
-207.31
-254.21
-280.35
-281.71
-258.07
-213.00
-153.33
-88.02
-26.41
23.83
58.40
77.12
83.18
81.49
76.53
71.02
65.66
59.89
53.15
45.51
37.81
31.15
26.20
23.03
21.32
20.81
21.57
23.96
28.36
34.71
42.43
50.56
58.02
63.96
67.90
69.70
69.49
67.57
64.53
61.17
58.52
57.44
58.02
59.09
57.92
50.34
31.51
-2.61
-53.28
-117.27
-186.35
-248.71
-292.05
-307.23
-291.09
-247.29
-184.76
-114.70
-47.47
9.45
51.93
78.55
89.85
87.88
75.91
58.19
39.13
22.36
9.74
1.23
-4.55
-9.42
-14.28
-18.61
-20.64
-18.34
-10.66
1.74
16.60
30.85
41.82
48.02
49.39
47.01
42.34
36.70
31.11
26.29
22.72
20.69
20.16
20.61
21.09
20.46
17.71
12.35
4.79
-3.59
-10.75
-14.60
-13.82
-8.52
-0.31
8.35
15.14
18.81
19.47
18.31
16.75
15.76
15.50
15.49
15.10
13.93
11.94
9.36
6.44
3.39
0.32
-2.65
-5.39
-7.71
-9.34
-10.05
-9.63
-8.03
-5.42
-2.24
0.92
3.49
5.17
5.98
6.21
6.23
6.26
6.33
6.31
6.15
5.93
5.91
6.35
7.33
8.59
9.57
9.59
8.17
5.35
1.80
-1.33
-2.84
-1.97
1.27
6.15
11.52
16.29
19.86
22.18
23.57
24.60
25.84
27.70
30.26
33.05
34.96
34.49
30.33
22.05
10.52
-2.24
-13.75
-21.86
-25.23
-23.47
-16.94
-6.53
6.46
20.36
33.31
43.71
50.69
54.55
56.65
58.93
62.96
69.05
75.74
80.01
77.99
66.10
42.20
6.45
-38.66
-89.02
-140.01
-187.36
-227.48
-257.17
-273.18
-272.28
-252.09
-212.38
-156.35
-90.72
-24.45
33.60
77.26
104.56
117.71
121.41
120.58
118.61
116.73
114.41
110.49
104.04
94.80
83.03
69.30
54.59
40.68
30.22
26.35
31.63
46.88
70.49
98.74
126.97
151.02
168.20
177.65
180.06
177.03
170.40
161.48
150.54
136.39
116.73
88.84
50.77
2.52
-53.35
-112.34
-169.24
-219.55
-260.44
-290.54
-309.09
-315.18
-307.38
-284.06
-244.08
-187.45
-116.26
-35.43
47.16
121.30
176.39
204.08
201.10
170.60
121.78
67.20
18.99
-14.62
-31.32
-34.79
-33.09
-35.71
-50.30
-79.64
-120.28
-163.36
-197.33
-211.63
-199.76
-160.68
-98.69
-22.40
56.77
126.20
174.01
191.39
174.90
127.71
58.95
-18.74
-92.88
-154.32
-198.75
-226.58
-241.55
-249.15
-254.84
-262.55
-273.47
-285.62
-294.48
-294.73
-282.45
-256.39
-218.27
-171.46
-119.35
-64.20
-7.35
49.68
103.98
151.14
186.49
207.01
212.84
207.32
195.52
182.14
169.97
159.60
150.23
140.97
131.69
122.99
115.63
109.75
104.77
99.63
93.46
86.05
77.91
70.01
63.24
58.01
54.16
51.05
47.96
44.34
40.09
35.47
30.96
26.99
23.70
20.91
18.10
14.72
10.34
5.00
-0.65
-5.52
-8.38
-8.43
-5.65
-0.94
4.26
8.52
11.02
11.77
11.41
10.68
10.02
9.36
8.39
6.92
5.11
3.46
2.50
2.47
3.18
4.12
4.75
4.80
4.33
3.71
3.36
3.55
4.30
5.40
6.53
7.36
7.73
7.61
7.15
6.55
6.07
5.94
6.31
7.16
8.24
9.02
8.82
7.03
3.39
-1.85
-7.84
-13.39
-17.21
-18.40
-16.65
-12.40
-6.62
-0.52
4.83
8.74
10.96
11.71
11.55
11.24
11.56
13.05
15.72
18.83
21.05
20.96
17.81
12.08
5.45
0.15
-2.08
-0.82
2.94
7.36
10.84
12.76
13.80
15.45
19.16
25.58
34.13
43.31
51.20
56.06
56.84
53.35
46.25
37.09
28.02
21.28
18.27
18.32
17.94
11.04
-8.96
-46.03
-98.49
-157.97
-211.22
-244.40
-248.07
-220.63
-168.73
-104.42
-40.68
12.68
51.05
74.70
86.64
90.40
88.65
82.98
74.42
64.16
53.64
44.18
36.54
30.68
25.98
22.06
19.39
19.36
23.78
33.89
49.65
69.42
90.37
109.33
123.83
132.82
136.93
138.06
138.34
138.94
139.26
136.71
127.60
108.48
77.50
34.99
-17.07
-76.23
-140.44
-207.95
-276.30
-341.05
-395.62
-432.67
-446.57
-435.73
-403.18
-355.17
-298.44
-237.73
-175.17
-111.45
-47.99
11.68
62.36
99.21
120.12
126.78
123.89
116.97
110.10
104.76
100.27
95.17
88.67
81.27
74.35
69.31
66.78
66.31
66.72
66.68
65.25
62.19
57.92
53.28
49.10
45.88
43.56
41.68
39.54
36.63
32.82
28.43
23.98
20.03
16.86
14.41
12.35
10.31
8.09
5.82
3.88
2.68
2.42
2.96
3.84
4.53
4.73
4.44
3.99
3.76
4.02
4.78
5.82
6.91
7.83
8.50
8.92
9.14
9.23
9.29
9.44
9.76
10.27
10.92
11.67
12.51
13.52
14.89
16.80
19.30
22.18
25.09
27.68
29.82
31.75
33.92
36.70
39.95
42.91
44.49
43.80
40.82
36.55
32.61
30.36
30.27
31.76
33.89
36.17
39.10
43.90
51.66
62.43
74.97
87.20
97.35
104.83
110.39
115.30
119.96
123.05
121.44
111.34
89.90
56.41
12.42
-39.29
-96.16
-156.74
-220.25
-285.12
-347.33
-400.29
-436.28
-449.20
-437.05
-402.54
-351.63
-290.85
-225.22
-157.92
-91.56
-29.69
22.76
60.89
82.09
87.76
82.91
74.13
66.78
63.13
62.26
61.61
58.76
52.67
43.90
34.16
25.67
20.69
20.98
27.25
38.67
52.79
66.37
76.41
81.31
81.27
77.84
72.93
67.86
63.09
58.41
53.55
48.51
43.56
38.99
34.90
31.18
27.66
24.19
20.73
17.37
14.33
11.98
10.78
11.10
13.04
16.21
19.81
22.91
24.91
25.67
25.53
24.78
23.37
20.78
16.33
9.78
1.76
-6.42
-13.27
-18.02
-21.06
-23.80
-27.73
-33.32
-39.34
-43.30
-42.58
-35.95
-24.30
-10.43
2.25
11.14
15.42
16.01
14.72
13.15
12.00
11.06
9.78
7.81
5.31
2.83
0.92
-0.17
-0.57
-0.69
-1.03
-1.86
-3.17
-4.56
-5.41
-5.12
-3.37
-0.32
3.41
6.94
9.47
10.63
10.53
9.70
8.72
7.89
7.10
5.89
3.88
1.02
-2.33
-5.61
-8.47
-10.99
-13.69
-17.14
-21.36
-25.56
-28.26
-27.91
-23.72
-16.11
-6.67
2.46
9.45
13.50
14.89
14.69
14.02
13.54
13.26
12.78
11.73
10.11
8.29
6.81
6.04
6.00
6.36
6.66
6.61
6.18
5.64
5.29
5.31
5.63
6.00
6.12
5.79
5.07
4.14
3.34
2.90
2.92
3.26
3.61
3.55
2.76
1.17
-1.03
-3.39
-5.44
-6.89
-7.73
-8.19
-8.56
-8.94
-9.18
-8.98
-8.07
-6.45
-4.38
-2.32
-0.66
0.42
1.00
1.27
1.41
1.48
1.44
1.24
0.91
0.56
0.33
0.28
0.36
0.46
0.48
0.41
0.25
0.04
-0.17
-0.33
-0.34
-0.10
0.50
1.47
2.66
3.82
4.72
5.20
5.28
5.06
4.72
4.38
4.09
3.87
3.71
3.61
3.54
3.40
3.07
2.49
1.70
0.89
0.37
0.44
1.27
2.80
4.72
6.62
8.08
8.84
8.89
8.45
7.91
7.70
8.05
8.91
9.83
10.11
9.11
6.58
2.85
-1.24
-4.65
-6.66
-7.23
-6.93
-6.66
-6.99
-7.86
-8.48
-7.76
-4.89
0.11
6.29
12.07
15.92
16.98
15.46
12.54
9.90
8.96
10.47
14.30
19.49
24.48
27.25
25.47
16.98
0.78
-21.81
-46.51
-66.82
-76.21
-70.82
-51.45
-23.43
5.66
29.07
43.48
49.55
50.46
49.71
49.37
49.60
49.53
48.33
45.88
42.70
39.48
36.64
34.23
32.17
30.39
29.09
28.86
30.59
35.33
43.80
56.06
71.13
87.17
101.99
113.97
122.62
128.62
133.09
136.39
137.40
133.41
121.09
97.88
62.99
17.72
-35.38
-93.70
-155.33
-218.94
-282.73
-343.29
-395.15
-431.91
-448.14
-441.44
-413.35
-368.68
-313.34
-252.23
-188.02
-121.69
-54.47
10.52
67.76
111.01
135.84
141.87
133.08
116.11
97.34
80.47
66.08
52.92
40.29
29.54
23.81
26.29
38.03
56.89
78.25
97.02
109.80
115.94
117.27
116.49
115.65
115.34
114.97
113.69
111.25
108.10
104.90
101.70
97.39
89.87
76.53
55.06
24.22
-15.50
-61.29
-107.61
-146.62
-169.82
-170.61
-146.94
-102.80
-47.37
7.92
53.20
83.16
97.95
101.69
99.86
96.68
93.74
90.18
83.69
71.56
51.29
20.88
-20.96
-74.02
-135.81
-200.76
-260.67
-306.36
-329.93
-327.04
-297.97
-247.33
-182.68
-112.74
-45.81
11.36
54.29
81.28
93.55
94.68
89.45
82.23
75.72
70.62
66.26
61.60
56.24
50.43
44.71
39.34
34.26
29.39
25.20
22.65
22.82
26.17
32.00
38.58
43.89
46.48
46.08
43.56
40.32
37.59
35.90
34.98
34.06
32.32
29.24
24.78
19.42
13.98
9.35
6.12
4.32
3.48
2.92
2.16
1.26
0.78
1.50
3.84
7.62
11.98
15.83
18.30
19.08
18.34
16.44
13.65
9.95
5.40
0.29
-4.78
-9.23
-13.04
-17.13
-23.10
-32.24
-44.31
-56.82
-65.66
-66.70
-57.93
-40.66
-19.12
1.34
16.53
24.90
27.57
27.11
25.93
25.20
24.87
24.34
23.19
21.51
19.71
18.03
16.42
14.57
12.38
9.93
7.56
5.68
4.55
4.24
4.72
5.89
7.62
9.73
11.90
13.81
15.21
16.23
17.18
18.31
19.32
19.24
16.57
10.16
-0.09
-12.90
-25.97
-37.06
-45.15
-50.78
-55.41
-60.00
-63.89
-64.72
-59.72
-47.53
-29.50
-9.45
8.03
19.58
24.47
24.45
22.44
20.83
20.43
20.59
20.04
17.91
14.16
9.49
4.75
0.43
-3.44
-7.26
-11.46
-16.04
-20.32
-22.98
-22.54
-18.10
-9.93
0.37
10.39
17.89
21.68
22.01
20.25
18.07
16.67
16.34
16.67
16.98
16.83
16.22
15.40
14.63
13.92
13.02
11.56
9.26
6.22
2.93
0.25
-0.88
0.28
3.95
9.79
16.88
23.98
29.84
33.57
34.91
34.35
33.02
32.27
33.08
35.66
39.27
42.57
44.19
43.60
41.35
39.03
38.39
40.60
45.56
52.11
58.88
64.97
70.00
73.40
73.68
68.46
55.72
35.51
10.80
-13.57
-33.53
-48.34
-61.20
-77.24
-100.11
-129.27
-160.03
-186.35
-204.46
-215.03
-222.04
-229.47
-237.73
-242.45
-236.35
-213.15
-171.32
-115.52
-55.17
-0.67
40.42
65.54
77.06
80.04
79.46
78.15
76.50
73.49
68.36
61.61
54.93
50.30
48.80
49.86
51.56
51.67
48.81
43.21
36.53
31.13
28.84
30.08
33.75
37.75
40.04
39.48
36.31
31.77
27.43
24.29
22.36
20.80
18.47
14.63
9.32
3.25
-2.72
-8.11
-12.98
-17.61
-21.89
-24.99
-25.61
-22.66
-16.14
-7.36
1.53
8.45
12.35
13.50
13.04
12.21
11.66
11.37
10.92
9.99
8.61
7.11
5.79
4.71
3.66
2.33
0.55
-1.60
-3.77
-5.43
-6.11
-5.53
-3.71
-1.03
1.93
4.54
6.35
7.22
7.28
6.84
6.18
5.44
4.64
3.74
2.79
1.95
1.41
1.23
1.26
1.11
0.36
-1.26
-3.64
-6.18
-8.05
-8.42
-6.90
-3.74
0.27
4.13
7.06
8.77
9.47
9.66
9.79
10.12
10.66
11.22
11.47
10.98
9.27
6.01
1.20
-4.68
-10.77
-16.15
-20.20
-22.69
-23.71
-23.35
-21.58
-18.32
-13.72
-8.37
-3.27
0.54
2.43
2.43
1.20
-0.42
-1.73
-2.42
-2.60
-2.52
-2.45
-2.52
-2.78
-3.20
-3.82
-4.68
-5.77
-6.88
-7.56
-7.24
-5.52
-2.38
1.68
5.80
9.13
11.13
11.81
11.60
11.02
10.44
9.91
9.27
8.37
7.21
5.99
5.00
4.44
4.31
4.44
4.50
4.23
3.53
2.61
1.90
1.88
2.85
4.71
7.03
9.16
10.49
10.73
9.98
8.64
7.25
6.32
6.21
6.99
8.42
9.90
10.57
9.58
6.39
1.04
-5.70
-12.53
-18.00
-20.91
-20.75
-17.81
-13.00
-7.54
-2.49
1.46
4.17
5.80
6.68
7.06
7.07
6.73
6.05
5.05
3.78
2.24
0.43
-1.64
-3.86
-6.08
-8.08
-9.66
-10.65
-10.88
-10.23
-8.72
-6.49
-3.94
-1.53
0.33
1.47
2.01
2.23
2.40
2.62
2.78
2.75
2.46
1.99
1.52
1.20
1.03
0.89
0.61
0.11
-0.49
-0.90
-0.80
0.03
1.53
3.38
5.15
6.41
6.92
6.72
6.02
5.20
4.66
4.70
5.49
6.85
8.21
8.70
7.44
3.93
-1.68
-8.55
-15.45
-21.20
-24.99
-26.46
-25.63
-22.77
-18.29
-12.75
-6.89
-1.53
2.62
5.18
6.12
5.78
4.64
3.18
1.80
0.82
0.43
0.65
1.28
1.91
2.09
1.47
-0.03
-2.16
-4.38
-6.01
-6.40
-5.18
-2.45
1.26
5.09
8.20
10.08
10.74
10.61
10.29
10.25
10.63
11.21
11.59
11.30
10.01
7.62
4.27
0.35
-3.62
-7.09
-9.65
-11.10
-11.43
-10.71
-9.07
-6.68
-3.82
-0.89
1.60
3.21
3.77
3.46
2.70
1.95
1.50
1.38
1.46
1.56
1.62
1.59
1.44
1.01
0.09
-1.41
-3.29
-5.02
-5.95
-5.54
-3.74
-0.98
1.95
4.26
5.50
5.67
5.16
4.47
4.07
4.22
5.00
6.19
7.32
7.62
6.26
2.68
-3.13
-10.50
-18.25
-25.02
-29.64
-31.38
-30.04
-25.85
-19.51
-12.05
-4.70
1.37
5.39
7.17
7.08
5.79
3.97
2.05
0.27
-1.24
-2.36
-2.99
-3.16
-3.11
-3.18
-3.74
-4.95
-6.75
-8.81
-10.60
-11.46
-10.85
-8.49
-4.56
0.32
5.23
9.30
12.02
13.42
13.88
13.92
13.83
13.60
13.06
12.05
10.65
9.23
8.20
7.86
8.19
8.92
9.62
9.91
9.68
9.05
8.32
7.83
7.76
8.09
8.64
9.15
9.38
9.27
8.87
8.37
7.99
7.92
8.23
8.91
9.79
10.52
10.61
9.57
7.04
3.05
-1.92
-6.99
-11.11
-13.45
-13.71
-12.17
-9.61
-6.91
-4.72
-3.33
-2.61
-2.30
-2.11
-1.89
-1.55
-1.05
-0.34
0.49
1.20
1.37
0.54
-1.50
-4.63
-8.32
-11.88
-14.65
-16.16
-16.21
-14.79
-12.10
-8.49
-4.50
-0.77
2.10
3.74
4.17
3.71
2.90
2.21
1.89
1.90
2.04
1.98
1.47
0.32
-1.56
-4.22
-7.67
-11.76
-16.10
-19.89
-22.11
-21.82
-18.61
-12.90
-5.93
0.75
5.83
8.75
9.82
9.84
9.62
9.57
9.66
9.57
9.04
8.07
6.90
5.88
5.19
4.82
4.60
4.33
3.96
3.54
3.22
3.11
3.18
3.30
3.32
3.13
2.72
2.16
1.52
0.91
0.36
-0.09
-0.41
-0.60
-0.70
-0.80
-1.02
-1.45
-2.07
-2.80
-3.46
-3.91
-4.04
-3.82
-3.30
-2.55
-1.68
-0.79
-0.01
0.59
0.98
1.23
1.41
1.59
1.79
1.91
1.87
1.62
1.18
0.68
0.23
-0.12
-0.40
-0.71
-1.07
-1.45
-1.74
-1.81
-1.65
-1.31
-0.91
-0.55
-0.26
0.02
0.36
0.80
1.28
1.67
1.83
1.69
1.29
0.78
0.32
0.04
-0.07
-0.11
-0.22
-0.53
-1.06
-1.74
-2.42
-2.94
-3.12
-2.84
-2.08
-0.92
0.42
1.67
2.61
3.13
3.26
3.15
2.97
2.81
2.73
2.70
2.65
2.52
2.25
1.79
1.17
0.45
-0.28
-0.93
-1.47
-1.89
-2.24
-2.51
-2.63
-2.53
-2.20
-1.73
-1.29
-1.09
-1.23
-1.69
-2.31
-2.93
-3.40
-3.67
-3.77
-3.76
-3.75
-3.87
-4.24
-4.97
-5.98
-7.07
-7.85
-7.91
-6.97
-5.01
-2.33
0.59
3.20
5.17
6.38
6.99
7.24
7.32
7.27
7.02
6.46
5.56
4.41
3.23
2.25
1.64
1.42
1.50
1.75
2.05
2.31
2.51
2.62
2.62
2.47
2.13
1.63
1.03
0.48
0.11
-0.01
0.11
0.36
0.60
0.67
0.50
0.05
-0.61
-1.37
-2.08
-2.68
-3.15
-3.53
-3.83
-4.04
-4.09
-3.92
-3.50
-2.87
-2.14
-1.44
-0.85
-0.40
-0.07
0.15
0.22
0.11
-0.23
-0.78
-1.45
-2.09
-2.57
-2.78
-2.71
-2.42
-2.01
-1.56
-1.12
-0.73
-0.40
-0.12
0.15
0.47
0.89
1.47
2.18
2.97
3.74
4.41
4.91
5.24
5.37
5.32
5.07
4.62
4.01
3.29
2.54
1.85
1.29
0.90
0.68
0.59
0.57
0.53
0.44
0.31
0.19
0.18
0.33
0.63
1.04
1.47
1.82
2.03
2.09
2.04
1.96
1.90
1.82
1.65
1.28
0.71
0.07
-0.38
-0.38
0.24
1.39
2.79
4.05
4.81
4.95
4.63
4.21
4.11
4.62
5.75
7.18
8.42
9.00
8.74
7.86
6.91
6.52
7.19
9.05
11.86
15.02
17.60
18.46
16.54
11.37
3.52
-5.31
-12.70
-16.46
-15.64
-10.99
-4.60
1.09
4.46
5.30
4.73
4.41
5.66
8.77
12.98
16.68
18.02
15.53
8.66
-2.04
-15.03
-28.27
-39.81
-48.20
-52.53
-52.43
-47.88
-39.24
-27.35
-13.65
-0.06
11.44
19.29
22.81
22.38
19.12
14.53
10.01
6.43
4.17
3.19
3.26
4.02
4.69
3.73
-1.13
-11.83
-28.52
-48.32
-65.72
-74.53
-70.77
-54.86
-31.66
-8.17
9.64
19.31
22.17
21.64
20.78
20.72
20.71
19.45
16.50
12.77
9.89
9.22
10.88
13.81
16.39
17.28
16.08
13.46
10.70
9.08
9.29
11.20
13.95
16.39
17.59
17.24
15.77
14.15
13.51
14.54
17.05
19.81
20.92
18.63
12.15
2.21
-9.16
-19.41
-26.46
-29.53
-29.14
-26.65
-23.53
-20.71
-18.52
-16.95
-15.99
-15.72
-16.16
-16.94
-17.31
-16.43
-13.84
-9.82
-5.33
-1.67
0.19
0.01
-1.64
-3.74
-5.35
-5.95
-5.53
-4.39
-2.95
-1.55
-0.47
0.05
-0.17
-1.11
-2.52
-3.98
-5.01
-5.38
-5.15
-4.68
-4.40
-4.66
-5.59
-7.13
-9.07
-11.16
-13.15
-14.84
-16.12
-16.89
-17.02
-16.34
-14.71
-12.11
-8.69
-4.77
-0.63
3.70
8.51
14.20
21.01
28.65
36.24
42.65
46.92
48.72
48.53
47.37
46.39
46.39
47.62
49.82
52.44
54.80
56.23
56.05
53.63
48.51
40.61
30.42
18.99
7.68
-2.27
-10.12
-15.72
-19.49
-21.96
-23.58
-24.50
-24.70
-24.10
-22.78
-20.99
-19.04
-17.17
-15.49
-13.91
-12.22
-10.28
-8.03
-5.58
-3.14
-0.95
0.72
1.61
1.46
-0.01
-2.90
-7.07
-12.06
-17.17
-21.66
-25.05
-27.18
-28.25
-28.58
-28.30
-27.28
-25.20
-21.84
-17.40
-12.52
-8.05
-4.74
-2.87
-2.25
-2.41
-2.89
-3.45
-4.08
-4.80
-5.55
-6.12
-6.28
-5.96
-5.35
-4.78
-4.61
-5.03
-6.00
-7.14
-7.85
-7.39
-5.20
-1.15
4.28
10.11
15.21
18.69
20.30
20.38
19.68
18.97
18.68
18.83
19.14
19.23
18.83
18.02
17.15
16.79
17.43
19.17
21.60
23.94
25.45
26.05
26.55
28.45
33.21
41.35
51.87
62.42
70.33
73.74
72.72
69.30
66.39
66.50
70.49
77.24
84.47
89.85
91.71
88.98
80.92
67.36
49.67
31.49
18.49
16.20
26.90
47.37
69.15
81.52
75.80
48.70
3.14
-53.77
-114.02
-171.30
-221.91
-264.34
-298.25
-323.92
-341.97
-353.30
-358.47
-357.13
-348.09
-329.51
-299.66
-257.64
-203.76
-139.97
-70.14
0.01
63.59
114.14
147.68
164.08
167.31
163.84
160.12
160.17
164.14
168.53
167.63
155.81
130.30
93.26
52.16
17.89
0.77
6.22
32.19
69.94
108.08
137.46
154.47
160.89
161.36
159.93
158.26
155.78
151.24
143.67
132.38
116.22
93.46
62.60
23.81
-20.40
-65.59
-106.67
-139.00
-158.79
-163.12
-150.26
-120.65
-78.04
-29.63
15.59
49.74
69.08
75.07
73.35
71.07
74.02
84.79
102.35
122.69
139.67
146.59
138.16
112.60
72.99
26.91
-15.90
-46.66
-60.19
-56.13
-38.30
-13.16
11.71
28.75
31.45
15.62
-19.10
-68.43
-124.09
-176.17
-216.30
-240.03
-247.74
-243.38
-232.31
-219.50
-208.65
-202.14
-201.14
-205.42
-212.85
-219.15
-218.70
-206.13
-178.11
-134.62
-78.87
-16.13
47.85
108.16
161.13
203.96
234.04
248.79
245.91
224.18
184.26
129.05
63.49
-6.33
-74.15
-134.36
-182.50
-215.33
-230.70
-227.65
-206.63
-169.57
-119.70
-60.91
2.82
67.81
130.62
187.87
235.96
271.23
290.58
292.11
275.74
243.23
197.42
141.24
77.08
6.97
-66.39
-138.29
-201.72
-248.49
-271.70
-268.35
-240.41
-193.91
-136.19
-73.05
-7.56
59.22
126.17
190.39
246.83
289.61
314.10
318.52
304.26
275.00
235.17
188.36
136.30
78.98
16.20
-50.67
-117.10
-175.40
-216.63
-233.40
-222.24
-184.25
-124.20
-48.89
33.75
114.81
184.39
232.78
252.73
241.97
204.28
148.26
84.22
20.81
-36.77
-86.47
-128.02
-161.40
-186.24
-201.85
-207.43
-201.74
-182.78
-148.29
-97.50
-33.46
35.85
98.21
140.67
154.34
138.01
98.70
48.59
-0.10
-39.77
-69.22
-91.92
-112.26
-132.21
-150.28
-163.25
-169.11
-169.15
-167.70
-169.60
-177.03
-187.77
-195.55
-192.83
-174.17
-138.23
-87.65
-27.08
39.14
108.06
177.32
243.44
300.58
341.25
358.88
350.47
317.95
267.21
205.68
139.77
73.70
10.18
-48.20
-97.60
-132.83
-148.37
-140.11
-107.13
-53.08
13.59
80.78
135.26
166.00
166.98
138.53
86.76
21.43
-46.96
-109.56
-160.54
-197.40
-220.50
-232.30
-236.43
-236.88
-237.47
-241.11
-249.07
-260.50
-272.28
-279.35
-276.12
-258.30
-224.58
-177.31
-121.52
-62.79
-4.83
51.74
108.81
168.39
230.20
290.11
340.72
373.92
383.70
367.95
328.59
270.12
198.43
120.17
43.17
-23.18
-68.66
-84.40
-65.97
-15.98
55.42
132.70
199.06
241.09
251.95
232.26
188.23
128.66
61.99
-5.35
-68.94
-125.52
-172.13
-206.16
-226.29
-233.90
-233.18
-229.97
-229.39
-233.38
-239.82
-243.31
-237.36
-217.19
-181.38
-131.74
-71.76
-4.84
66.40
139.24
209.37
270.00
313.03
331.75
323.65
291.48
241.78
181.82
116.98
50.16
-16.60
-79.78
-133.07
-168.27
-177.96
-158.31
-111.00
-43.38
33.11
105.17
160.28
189.29
188.20
158.80
107.99
45.60
-18.37
-76.21
-123.59
-159.26
-183.86
-198.82
-205.88
-207.47
-206.81
-207.48
-211.98
-220.23
-228.81
-231.80
-222.92
-198.07
-156.97
-102.87
-40.71
25.03
91.21
155.57
215.19
265.58
301.26
317.58
312.73
288.45
248.79
197.90
138.22
70.86
-2.43
-76.91
-144.08
-193.61
-216.96
-210.74
-177.64
-124.69
-60.41
7.48
72.89
130.91
177.37
208.87
223.46
221.21
203.69
173.17
131.77
81.78
26.60
-28.65
-78.10
-117.21
-144.55
-162.13
-173.44
-180.57
-182.41
-174.92
-153.34
-114.70
-59.34
8.93
83.69
157.12
221.26
268.90
294.81
296.81
276.36
237.95
187.39
130.07
69.84
9.16
-49.78
-104.28
-150.92
-186.13
-207.12
-212.32
-201.11
-173.12
-128.40
-68.32
2.95
77.44
143.99
191.00
210.07
198.80
161.46
106.98
45.64
-13.97
-66.35
-108.79
-140.16
-160.22
-169.88
-171.77
-170.09
-169.13
-171.08
-174.51
-174.38
-163.77
-136.24
-88.39
-21.50
57.93
139.09
208.84
254.78
268.71
249.05
201.43
136.93
68.65
7.79
-39.01
-70.41
-89.22
-100.29
-108.27
-115.89
-123.05
-126.78
-122.00
-103.19
-66.74
-13.26
51.42
116.88
170.58
201.41
203.05
175.76
126.13
64.69
2.67
-51.10
-91.67
-118.03
-131.82
-135.80
-132.90
-126.02
-118.44
-113.49
-113.95
-120.52
-130.86
-139.51
-139.23
-123.20
-87.11
-30.58
42.43
123.93
203.03
267.94
308.49
318.80
298.85
254.46
195.35
132.01
72.87
22.81
-16.62
-45.88
-66.14
-78.80
-85.34
-87.11
-84.81
-77.86
-64.70
-44.19
-17.62
10.44
32.84
42.71
36.62
16.42
-11.66
-39.92
-62.67
-78.02
-87.40
-93.25
-96.84
-97.59
-94.26
-86.88
-77.84
-71.56
-72.42
-82.32
-99.21
-116.97
-126.96
-120.59
-92.06
-40.94
26.74
99.24
162.06
202.29
212.65
193.83
153.73
104.18
56.69
18.99
-6.28
-20.55
-27.12
-29.50
-30.50
-32.31
-36.60
-43.70
-51.43
-54.40
-45.32
-18.10
28.48
88.35
149.04
195.52
215.40
203.16
161.49
99.43
28.70
-40.01
-99.25
-145.20
-176.93
-195.45
-203.05
-203.03
-199.33
-196.03
-196.32
-201.90
-212.66
-226.91
-241.65
-253.29
-258.07
-252.66
-234.75
-203.86
-162.04
-114.05
-66.51
-26.30
1.35
14.08
12.64
-0.01
-19.66
-41.68
-61.24
-73.21
-72.59
-55.56
-21.04
28.16
85.47
141.97
189.13
221.28
237.05
239.02
232.16
221.56
210.66
200.58
190.58
179.22
165.49
149.46
132.28
115.55
100.66
88.26
78.20
69.81
62.34
55.57
49.89
45.90
43.90
43.27
42.60
40.58
36.85
32.30
28.24
24.98
20.86
12.71
-2.46
-25.39
-53.67
-82.61
-107.45
-125.61
-137.25
-144.06
-146.95
-144.71
-134.50
-114.03
-83.73
-47.50
-11.20
19.91
43.26
59.45
70.84
79.67
86.60
90.85
91.45
88.47
83.64
79.66
78.88
82.11
88.19
94.07
95.50
88.40
70.57
43.30
11.79
-16.25
-33.53
-36.37
-26.45
-9.94
5.67
15.08
17.29
15.10
12.59
12.53
15.10
18.68
21.68
24.01
27.26
33.48
43.68
57.03
71.21
83.25
91.04
94.15
93.89
92.78
93.42
97.60
105.68
116.54
127.97
137.16
141.09
136.77
121.68
94.53
56.20
10.26
-37.40
-79.95
-111.53
-128.97
-132.43
-124.93
-110.94
-94.88
-80.18
-68.98
-62.22
-59.87
-61.02
-63.82
-65.64
-63.73
-56.33
-43.96
-30.16
-21.03
-23.43
-42.17
-77.79
-125.85
-178.32
-226.29
-262.61
-283.27
-287.20
-275.02
-247.92
-207.35
-155.42
-95.17
-30.27
35.87
100.94
163.82
223.84
279.66
328.53
366.37
388.76
392.38
376.20
341.96
293.70
236.68
175.95
115.56
58.49
7.19
-36.00
-69.08
-91.36
-104.05
-109.78
-110.72
-106.44
-93.54
-67.80
-28.01
20.81
67.33
97.58
100.88
74.70
25.90
-32.49
-86.94
-128.45
-154.64
-168.38
-174.45
-176.59
-176.28
-173.43
-168.00
-161.22
-155.66
-154.05
-157.80
-166.10
-176.05
-184.15
-187.92
-187.09
-183.66
-180.83
-181.51
-187.20
-197.55
-210.72
-224.03
-234.59
-239.62
-236.89
-224.99
-203.66
-173.84
-137.27
-95.74
-50.25
-0.92
52.29
108.23
163.67
213.47
252.12
275.84
284.06
279.53
266.95
250.97
234.71
219.34
204.64
190.10
175.48
160.93
146.64
132.51
118.23
103.50
88.40
73.38
59.12
46.40
35.80
27.66
22.01
18.48
16.35
14.71
12.77
10.12
6.91
3.67
1.01
-0.67
-1.36
-1.40
-1.25
-1.29
-1.67
-2.28
-2.93
-3.43
-3.69
-3.72
-3.54
-3.24
-2.87
-2.48
-2.13
-1.88
-1.74
-1.68
-1.64
-1.53
-1.35
-1.13
-0.92
-0.75
-0.61
-0.45
-0.27
-0.10
-0.04
-0.18
-0.56
-1.10
-1.64
-2.03
-2.16
-2.04
-1.84
-1.79
-2.09
-2.81
-3.86
-4.98
-5.91
-6.49
-6.79
-7.03
-7.50
-8.35
-9.50
-10.76
-11.88
-12.77
-13.49
-14.23
-15.21
-16.49
-18.03
-19.65
-21.19
-22.58
-23.85
-25.12
-26.55
-28.25
-30.26
-32.62
-35.38
-38.59
-42.07
-45.26
-47.19
-46.71
-42.91
-35.55
-25.15
-12.82
0.19
12.91
24.79
35.47
44.56
51.41
55.32
55.88
53.28
48.41
42.53
36.83
32.05
28.38
25.59
23.33
21.40
19.78
18.64
18.11
18.14
18.50
18.80
18.71
18.04
16.88
15.52
14.34
13.67
13.61
14.03
14.59
14.92
14.78
14.18
13.42
12.89
12.94
13.61
14.69
15.76
16.52
16.97
17.48
18.62
20.85
24.27
28.49
32.88
36.77
39.71
41.54
42.29
42.00
40.69
38.42
35.40
32.15
29.41
27.99
28.59
31.57
36.96
44.44
53.45
63.37
73.64
83.97
94.39
105.27
117.01
129.97
144.30
159.89
176.31
192.56
206.76
216.10
217.38
208.12
187.64
157.62
121.42
82.51
42.71
1.56
-42.89
-91.91
-144.22
-195.39
-239.22
-270.36
-286.68
-290.07
-285.34
-277.80
-271.07
-266.12
-261.84
-256.57
-249.51
-241.31
-233.62
-228.13
-225.74
-226.35
-229.04
-232.41
-234.59
-233.19
-225.44
-208.64
-181.17
-143.36
-97.87
-49.20
-2.42
38.28
70.50
93.85
109.33
118.47
122.75
123.37
121.39
117.92
114.02
110.50
107.59
104.94
101.73
97.18
90.94
83.31
75.16
67.54
61.25
56.57
53.13
50.18
46.88
42.70
37.57
31.90
26.35
21.58
18.04
15.80
14.64
14.13
13.80
13.27
12.36
11.06
9.52
7.96
6.59
5.56
4.97
4.88
5.34
6.40
8.04
10.10
12.28
14.18
15.47
15.96
15.65
14.75
13.51
12.20
10.93
9.78
8.76
7.86
7.08
6.42
5.86
5.36
4.88
4.37
3.83
3.31
2.87
2.57
2.42
2.39
2.40
2.38
2.27
2.06
1.78
1.45
1.12
0.81
0.56
0.40
0.33
0.32
0.30
0.22
0.05
-0.15
-0.33
-0.42
-0.39
-0.25
0.01
0.33
0.66
0.92
1.03
0.94
0.70
0.41
0.18
0.10
0.14
0.24
0.35
0.46
0.59
0.78
0.98
1.10
1.09
0.94
0.75
0.60
0.57
0.59
0.58
0.46
0.24
-0.02
-0.20
-0.23
-0.11
0.09
0.34
0.59
0.84
1.08
1.29
1.43
1.51
1.55
1.60
1.66
1.67
1.58
1.34
0.97
0.59
0.29
0.17
0.18
0.26
0.31
0.31
0.32
0.42
0.65
0.94
1.18
1.23
1.06
0.71
0.34
0.11
0.12
0.36
0.74
1.12
1.38
1.42
1.22
0.75
0.08
-0.72
-1.53
-2.22
-2.68
-2.89
-2.90
-2.79
-2.68
-2.63
-2.64
-2.70
-2.80
-2.87
-2.86
-2.73
-2.54
-2.52
-3.04
-4.41
-6.76
-9.84
-13.11
-15.93
-17.80
-18.57
-18.43
-17.73
-16.81
-15.82
-14.76
-13.44
-11.63
-9.10
-5.67
-1.26
3.95
9.58
15.08
19.94
23.81
26.69
28.84
30.59
32.19
33.66
34.83
35.60
36.02
36.47
37.43
39.30
42.12
45.52
48.81
51.39
52.95
53.76
54.49
56.03
59.02
63.58
69.20
74.90
79.58
82.54
83.76
84.06
84.87
87.79
93.95
103.34
114.39
123.96
127.77
121.36
101.41
67.02
20.64
-32.14
-83.79
-127.02
-156.89
-172.03
-174.54
-168.65
-158.84
-148.42
-139.06
-131.25
-125.14
-121.07
-119.54
-120.66
-123.65
-126.89
-128.54
-127.36
-123.34
-117.62
-112.09
-108.51
-107.85
-110.13
-114.59
-120.12
-125.38
-128.74
-128.21
-121.65
-107.46
-85.48
-57.51
-27.09
1.60
25.09
41.74
51.91
57.28
59.78
60.82
61.01
60.58
59.82
59.35
59.89
61.86
65.03
68.51
71.17
72.06
70.85
67.94
64.17
60.45
57.34
54.88
52.66
50.13
46.92
43.03
38.80
34.74
31.27
28.54
26.45
24.73
23.10
21.39
19.58
17.73
15.94
14.27
12.72
11.28
9.93
8.65
7.42
6.25
5.14
4.13
3.29
2.67
2.27
2.00
1.73
1.36
0.87
0.32
-0.16
-0.44
-0.48
-0.35
-0.14
0.02
0.08
0.04
-0.03
-0.12
-0.23
-0.41
-0.69
-1.05
-1.44
-1.74
-1.87
-1.81
-1.62
-1.38
-1.21
-1.13
-1.09
-1.02
-0.82
-0.48
-0.06
0.32
0.54
0.51
0.25
-0.12
-0.51
-0.79
-0.93
-0.93
-0.87
-0.83
-0.90
-1.16
-1.62
-2.21
-2.82
-3.29
-3.54
-3.54
-3.37
-3.16
-3.04
-3.04
-3.15
-3.29
-3.40
-3.45
-3.51
-3.66
-3.99
-4.52
-5.20
-5.95
-6.67
-7.25
-7.70
-8.03
-8.34
-8.72
-9.26
-9.96
-10.74
-11.39
-11.68
-11.37
-10.33
-8.62
-6.37
-3.82
-1.19
1.32
3.53
5.26
6.31
6.48
5.68
4.02
1.78
-0.61
-2.73
-4.30
-5.28
-5.92
-6.56
-7.53
-8.98
-10.76
-12.59
-14.17
-15.32
-16.10
-16.74
-17.53
-18.75
-20.62
-23.40
-27.18
-31.70
-36.07
-38.81
-38.28
-33.35
-24.07
-11.81
1.15
12.50
20.71
25.47
27.42
27.59
26.84
25.59
24.06
22.46
21.22
20.84
21.58
23.24
25.19
26.66
27.01
26.07
24.13
21.76
19.52
17.79
16.64
15.89
15.29
14.61
13.69
12.54
11.22
9.87
8.66
7.69
7.01
6.54
6.15
5.69
5.04
4.22
3.33
2.51
1.88
1.47
1.23
1.02
0.71
0.24
-0.37
-1.03
-1.62
-2.03
-2.26
-2.32
-2.29
-2.29
-2.42
-2.79
-3.45
-4.37
-5.42
-6.44
-7.24
-7.75
-7.97
-8.01
-8.03
-8.22
-8.74
-9.64
-10.83
-11.97
-12.55
-12.03
-10.09
-6.79
-2.59
1.80
5.68
8.63
10.57
11.69
12.25
12.41
12.22
11.65
10.71
9.56
8.48
7.73
7.46
7.57
7.81
7.83
7.43
6.63
5.66
4.78
4.19
3.86
3.64
3.36
2.95
2.50
2.13
1.96
1.96
2.04
2.04
1.88
1.58
1.23
0.93
0.78
0.79
0.90
1.05
1.17
1.22
1.22
1.18
1.10
0.98
0.77
0.50
0.20
-0.04
-0.14
-0.10
0.05
0.23
0.34
0.31
0.16
-0.09
-0.37
-0.58
-0.64
-0.53
-0.25
0.12
0.43
0.56
0.43
0.04
-0.51
-1.08
-1.51
-1.73
-1.72
-1.54
-1.29
-1.07
-0.91
-0.83
-0.79
-0.79
-0.80
-0.81
-0.78
-0.69
-0.50
-0.27
-0.07
-0.02
-0.14
-0.41
-0.72
-0.93
-0.97
-0.86
-0.70
-0.56
-0.46
-0.36
-0.21
0.02
0.32
0.63
0.86
0.97
0.97
0.87
0.70
0.47
0.20
-0.10
-0.36
-0.48
-0.42
-0.18
0.14
0.42
0.56
0.57
0.54
0.57
0.72
0.94
1.11
1.15
1.08
1.00
1.05
1.30
1.72
2.21
2.68
3.09
3.48
3.90
4.33
4.76
5.13
5.49
5.93
6.56
7.46
8.58
9.80
11.03
12.26
13.60
15.19
17.14
19.44
22.00
24.70
27.48
30.42
33.65
37.28
41.35
45.81
50.51
55.31
60.17
65.15
70.45
76.28
82.77
89.91
97.49
105.16
112.60
119.64
126.37
133.04
139.93
147.19
154.71
162.19
169.16
175.15
179.71
182.42
182.72
179.91
173.09
161.29
143.69
119.74
89.24
52.31
9.46
-38.09
-88.05
-136.91
-180.34
-214.23
-235.91
-245.07
-243.69
-235.21
-223.13
-209.92
-196.69
-183.62
-170.73
-158.33
-147.04
-137.36
-129.33
-122.38
-115.73
-108.73
-101.24
-93.61
-86.50
-80.52
-75.90
-72.44
-69.54
-66.48
-62.65
-57.74
-51.77
-45.02
-37.88
-30.73
-23.91
-17.71
-12.34
-8.01
-4.78
-2.64
-1.47
-1.10
-1.31
-1.98
-2.96
-4.16
-5.43
-6.64
-7.61
-8.16
-8.24
-7.89
-7.32
-6.86
-6.80
-7.36
-8.58
-10.31
-12.09
-13.25
-12.95
-10.49
-5.60
1.33
9.19
16.56
22.15
25.31
26.18
25.44
23.90
22.11
20.21
18.15
15.92
13.76
12.02
11.00
10.70
10.84
11.00
10.87
10.33
9.49
8.58
7.78
7.16
6.68
6.21
5.64
4.90
4.03
3.11
2.30
1.77
1.63
1.88
2.36
2.83
3.00
2.73
2.02
1.10
0.25
-0.28
-0.36
-0.11
0.27
0.52
0.54
0.33
0.05
-0.16
-0.18
-0.04
0.19
0.40
0.57
0.78
1.08
1.53
2.07
2.55
2.82
2.81
2.55
2.15
1.76
1.51
1.46
1.63
2.01
2.53
3.09
3.52
3.63
3.27
2.40
1.10
-0.40
-1.85
-3.03
-3.78
-4.06
-3.92
-3.51
-2.99
-2.58
-2.46
-2.68
-3.17
-3.74
-4.16
-4.28
-4.10
-3.75
-3.42
-3.25
-3.24
-3.31
-3.34
-3.24
-3.02
-2.69
-2.33
-1.94
-1.51
-1.03
-0.51
-0.01
0.40
0.67
0.79
0.80
0.77
0.74
0.73
0.72
0.66
0.56
0.41
0.24
0.10
-0.01
-0.06
-0.04
0.06
0.22
0.40
0.51
0.49
0.31
0.01
-0.30
-0.49
-0.49
-0.29
0.01
0.31
0.53
0.62
0.61
0.54
0.44
0.35
0.26
0.18
0.11
0.08
0.08
0.10
0.14
0.16
0.18
0.19
0.21
0.25
0.30
0.33
0.31
0.23
0.07
-0.13
-0.36
-0.60
-0.87
-1.17
-1.48
-1.73
-1.87
-1.86
-1.72
-1.47
-1.16
-0.82
-0.46
-0.11
0.19
0.34
0.27
-0.02
-0.43
-0.78
-0.90
-0.70
-0.24
0.32
0.76
0.96
0.91
0.71
0.52
0.47
0.57
0.76
0.90
0.89
0.71
0.39
0.07
-0.11
-0.02
0.35
0.92
1.52
1.91
1.97
1.68
1.18
0.70
0.41
0.40
0.61
0.88
1.10
1.20
1.19
1.15
1.13
1.13
1.15
1.15
1.12
1.05
0.94
0.83
0.74
0.72
0.75
0.79
0.72
0.46
-0.04
-0.71
-1.38
-1.90
-2.16
-2.17
-2.06
-1.97
-2.00
-2.16
-2.37
-2.57
-2.72
-2.84
-2.97
-3.08
-3.08
-2.82
-2.25
-1.42
-0.51
0.21
0.56
0.48
0.06
-0.51
-1.04
-1.36
-1.42
-1.22
-0.83
-0.37
0.07
0.40
0.60
0.71
0.79
0.91
1.07
1.25
1.36
1.36
1.21
0.95
0.63
0.32
0.11
0.03
0.09
0.28
0.56
0.84
1.10
1.29
1.41
1.46
1.43
1.29
1.02
0.63
0.16
-0.30
-0.67
-0.91
-0.98
-0.92
-0.75
-0.49
-0.16
0.18
0.50
0.71
0.78
0.71
0.52
0.30
0.09
-0.06
-0.18
-0.31
-0.47
-0.65
-0.76
-0.70
-0.41
0.10
0.74
1.37
1.86
2.17
2.31
2.31
2.22
2.01
1.64
1.12
0.55
0.11
-0.03
0.18
0.64
1.13
1.36
1.19
0.67
-0.02
-0.60
-0.90
-0.87
-0.64
-0.39
-0.26
-0.31
-0.46
-0.60
-0.66
-0.66
-0.64
-0.68
-0.84
-1.12
-1.45
-1.77
-2.01
-2.11
-2.09
-1.97
-1.79
-1.59
-1.43
-1.30
-1.20
-1.06
-0.83
-0.50
-0.13
0.19
0.35
0.32
0.12
-0.13
-0.31
-0.34
-0.23
-0.03
0.16
0.28
0.33
0.32
0.26
0.17
0.00
-0.27
-0.66
-1.09
-1.46
-1.63
-1.50
-1.08
-0.50
0.06
0.46
0.63
0.63
0.55
0.47
0.44
0.44
0.43
0.40
0.37
0.33
0.26
0.16
0.07
0.04
0.15
0.38
0.64
0.80
0.77
0.54
0.17
-0.22
-0.55
-0.77
-0.85
-0.77
-0.52
-0.16
0.22
0.49
0.56
0.43
0.21
0.02
-0.08
-0.09
-0.07
-0.05
-0.04
-0.03
-0.01
-0.02
-0.10
-0.28
-0.50
-0.65
-0.62
-0.35
0.10
0.60
0.97
1.08
0.90
0.49
-0.03
-0.53
-0.93
-1.19
-1.30
-1.25
-1.03
-0.65
-0.19
0.25
0.56
0.66
0.53
0.23
-0.12
-0.44
-0.70
-0.88
-1.00
-1.05
-1.05
-0.98
-0.84
-0.65
-0.47
-0.34
-0.30
-0.35
-0.46
-0.54
-0.54
-0.44
-0.28
-0.16
-0.12
-0.16
-0.20
-0.17
-0.01
0.26
0.60
0.94
1.25
1.52
1.76
1.95
2.07
2.07
1.95
1.69
1.30
0.80
0.20
-0.42
-0.97
-1.32
-1.39
-1.17
-0.74
-0.24
0.16
0.36
0.30
0.01
-0.39
-0.78
-1.03
-1.12
-1.05
-0.90
-0.78
-0.74
-0.81
-0.99
-1.22
-1.44
-1.59
-1.62
-1.55
-1.49
-1.58
-1.97
-2.72
-3.72
-4.72
-5.45
-5.74
-5.68
-5.60
-5.89
-6.86
-8.50
-10.52
-12.42
-13.72
-14.23
-14.16
-14.13
-14.86
-16.86
-20.12
-24.03
-27.60
-29.90
-30.53
-29.95
-29.32
-30.03
-33.04
-38.37
-45.03
-51.45
-56.15
-58.45
-58.73
-58.16
-58.25
-60.29
-65.12
-72.90
-82.93
-93.25
-100.40
-99.77
-86.97
-59.73
-19.54
28.11
75.31
114.45
140.85
153.89
156.15
151.34
142.29
130.33
115.94
100.03
84.65
72.53
65.70
64.38
66.71
69.65
70.59
68.52
64.32
60.17
58.25
59.73
64.17
69.63
73.26
72.23
64.67
50.44
31.31
10.55
-8.25
-22.36
-30.88
-34.73
-35.90
-36.35
-37.09
-38.00
-38.33
-37.49
-35.53
-33.11
-31.05
-29.77
-29.05
-28.24
-26.68
-24.15
-21.00
-17.94
-15.64
-14.40
-14.00
-13.86
-13.36
-12.07
-9.93
-7.20
-4.35
-1.82
0.00
0.96
1.07
0.48
-0.53
-1.67
-2.71
-3.54
-4.19
-4.75
-5.35
-6.02
-6.76
-7.47
-8.08
-8.52
-8.81
-8.95
-8.96
-8.83
-8.53
-8.02
-7.30
-6.43
-5.52
-4.67
-3.95
-3.41
-3.05
-2.83
-2.74
-2.74
-2.80
-2.90
-2.98
-3.00
-2.93
-2.73
-2.39
-1.92
-1.34
-0.71
-0.11
0.37
0.68
0.82
0.82
0.74
0.61
0.40
0.04
-0.47
-1.12
-1.79
-2.32
-2.59
-2.57
-2.31
-1.95
-1.62
-1.37
-1.19
-0.99
-0.74
-0.44
-0.18
-0.04
-0.12
-0.43
-0.96
-1.60
-2.20
-2.59
-2.68
-2.43
-1.95
-1.42
-1.01
-0.80
-0.77
-0.79
-0.75
-0.65
-0.57
-0.63
-0.90
-1.31
-1.70
-1.91
-1.88
-1.60
-1.19
-0.76
-0.38
-0.09
0.11
0.25
0.32
0.29
0.13
-0.15
-0.51
-0.83
-1.00
-0.95
-0.71
-0.38
-0.10
0.06
0.08
0.05
0.00
-0.04
-0.16
-0.41
-0.80
-1.18
-1.38
-1.26
-0.81
-0.19
0.36
0.70
0.80
0.77
0.75
0.81
0.89
0.86
0.65
0.29
-0.10
-0.33
-0.30
-0.01
0.44
0.89
1.22
1.38
1.37
1.24
1.06
0.86
0.66
0.47
0.29
0.13
0.02
-0.01
0.02
0.09
0.13
0.12
0.05
-0.02
-0.02
0.10
0.34
0.61
0.80
0.79
0.53
0.09
-0.41
-0.79
-0.89
-0.70
-0.28
0.18
0.51
0.61
0.48
0.22
-0.04
-0.22
-0.31
-0.36
-0.40
-0.45
-0.49
-0.49
-0.45
-0.37
-0.28
-0.16
-0.02
0.19
0.44
0.67
0.80
0.77
0.64
0.48
0.41
0.51
0.75
1.05
1.33
1.53
1.65
1.74
1.82
1.88
1.87
1.74
1.50
1.22
1.04
1.06
1.35
1.87
2.52
3.16
3.64
3.91
3.96
3.90
3.88
4.07
4.55
5.27
5.95
6.26
5.87
4.66
2.78
0.56
-1.57
-3.30
-4.45
-5.01
-5.04
-4.63
-3.87
-2.91
-1.94
-1.17
-0.73
-0.63
-0.73
-0.85
-0.83
-0.62
-0.29
0.04
0.27
0.36
0.38
0.37
0.38
0.36
0.24
-0.05
-0.51
-1.06
-1.53
-1.80
-1.85
-1.75
-1.68
-1.77
-2.05
-2.46
-2.85
-3.11
-3.23
-3.29
-3.39
-3.55
-3.70
-3.67
-3.35
-2.74
-1.97
-1.26
-0.78
-0.60
-0.66
-0.80
-0.86
-0.77
-0.57
-0.38
-0.30
-0.40
-0.65
-0.99
-1.30
-1.53
-1.68
-1.80
-1.99
-2.28
-2.67
-3.07
-3.41
-3.68
-3.91
-4.21
-4.69
-5.37
-6.20
-7.09
-7.92
-8.62
-9.23
-9.83
-10.59
-11.67
-13.17
-15.10
-17.34
-19.65
-21.79
-23.62
-25.19
-26.75
-28.63
-31.14
-34.39
-38.28
-42.57
-46.98
-51.35
-55.69
-60.20
-65.15
-70.78
-77.14
-84.04
-91.14
-98.12
-104.81
-111.30
-117.88
-124.88
-132.55
-141.06
-150.69
-161.82
-174.57
-188.17
-200.49
-208.07
-207.00
-194.26
-168.81
-131.87
-86.14
-34.74
19.58
74.21
126.17
171.73
206.95
229.01
237.52
234.89
225.43
213.62
202.56
193.41
185.94
179.50
173.89
169.42
166.50
165.07
164.50
163.93
162.78
161.09
159.45
158.64
159.08
160.59
162.42
163.75
164.09
163.68
163.39
164.41
167.81
174.20
183.58
195.19
207.43
217.86
223.39
220.92
208.12
184.21
150.11
108.04
60.44
9.15
-44.82
-100.58
-156.33
-208.83
-253.92
-287.98
-309.43
-319.48
-321.51
-319.44
-316.10
-312.46
-308.04
-302.06
-294.66
-287.16
-281.44
-278.99
-280.24
-284.32
-289.48
-293.42
-293.56
-287.39
-272.75
-248.44
-214.54
-172.51
-124.46
-72.30
-17.15
40.42
99.34
157.12
209.67
252.43
281.95
297.26
300.15
294.04
282.44
267.76
251.17
233.40
215.72
200.27
189.42
184.67
185.76
190.73
196.87
202.11
205.73
208.21
210.42
212.58
213.76
211.98
204.98
190.84
168.58
138.23
100.80
58.21
13.20
-30.92
-70.79
-103.45
-127.04
-141.04
-146.09
-143.75
-135.91
-124.43
-110.96
-96.96
-83.99
-73.83
-68.32
-68.73
-75.11
-85.81
-97.90
-108.08
-113.90
-114.56
-110.92
-104.69
-97.60
-90.72
-84.39
-78.62
-73.42
-68.90
-65.15
-61.99
-59.01
-55.86
-52.54
-49.39
-47.09
-46.20
-46.83
-48.51
-50.42
-51.72
-51.93
-51.14
-49.95
-49.26
-50.08
-53.23
-58.91
-66.18
-72.56
-74.29
-67.44
-49.60
-21.37
13.31
48.34
77.58
97.09
106.15
106.81
102.38
95.85
89.05
82.79
77.45
73.49
71.42
71.44
73.12
75.43
77.17
77.38
75.72
72.56
68.76
65.33
62.98
61.63
60.19
56.69
48.98
35.78
17.48
-3.66
-24.23
-40.87
-51.58
-56.26
-56.43
-54.28
-51.65
-49.39
-47.48
-45.48
-43.12
-40.55
-38.23
-36.62
-35.86
-35.68
-35.55
-34.95
-33.62
-31.67
-29.52
-27.66
-26.47
-26.01
-26.10
-26.35
-26.44
-26.20
-25.71
-25.25
-25.14
-25.66
-26.93
-28.90
-31.33
-33.91
-36.35
-38.49
-40.34
-42.13
-44.18
-46.79
-50.18
-54.44
-59.52
-65.17
-70.85
-75.73
-78.92
-79.78
-78.30
-75.24
-71.80
-69.07
-67.34
-65.89
-63.18
-57.56
-47.84
-33.78
-15.96
4.48
26.10
47.37
66.68
82.53
93.79
100.02
101.62
99.64
95.43
90.23
84.88
79.76
74.95
70.37
65.93
61.51
57.01
52.41
47.78
43.40
39.65
36.90
35.36
34.92
35.13
35.31
34.80
33.17
30.41
26.88
23.17
19.81
17.12
15.14
13.69
12.60
11.70
10.95
10.31
9.71
9.04
8.22
7.24
6.26
5.54
5.33
5.78
6.80
8.12
9.41
10.39
10.95
11.14
11.06
10.83
10.48
10.00
9.37
8.68
8.10
7.86
8.14
9.02
10.40
12.06
13.69
14.96
15.62
15.62
15.11
14.46
14.09
14.35
15.41
17.17
19.27
21.09
21.86
20.74
17.12
10.81
2.20
-7.78
-17.94
-27.11
-34.44
-39.55
-42.47
-43.53
-43.24
-42.26
-41.33
-41.13
-42.09
-44.19
-46.92
-49.48
-51.12
-51.54
-51.07
-50.48
-50.65
-52.13
-54.99
-58.79
-62.93
-66.90
-70.41
-73.41
-76.11
-79.07
-83.10
-88.87
-96.04
-102.53
-104.26
-95.91
-72.73
-32.68
22.05
85.15
147.91
201.99
241.91
266.31
277.57
280.24
279.06
277.71
278.40
282.13
289.01
298.28
308.05
315.18
315.71
306.06
