1711199094.00
64.000000
-0.00
-0.00
-0.00
-0.00
-0.00
-0.00
-0.00
-0.00
-0.00
-0.00
0.00
0.01
0.01
-0.00
-0.03
-0.05
-0.05
0.00
0.13
0.36
0.66
1.01
1.37
1.72
2.06
2.40
2.79
3.24
3.80
4.42
5.06
5.66
6.20
6.68
7.15
7.68
8.31
9.14
10.09
11.04
11.88
12.56
13.14
13.76
14.65
15.96
17.91
20.32
22.90
25.38
27.58
29.57
31.68
34.32
37.81
42.54
48.15
54.10
59.83
64.97
69.58
74.14
79.34
85.71
93.76
103.00
112.62
121.73
129.77
136.75
143.30
150.75
157.77
166.64
177.95
191.79
206.97
220.57
228.25
225.36
208.53
176.87
132.76
80.05
23.07
-34.94
-92.44
-149.16
-205.23
-260.37
-313.74
-363.87
-409.83
-450.91
-486.50
-515.74
-537.23
-549.22
-549.96
-538.37
-514.21
-478.67
-433.88
-382.45
-327.02
-269.84
-212.63
-156.66
-102.95
-52.37
-5.90
35.58
71.43
101.35
125.50
144.38
158.69
169.15
176.37
180.75
182.57
182.07
179.51
175.23
169.65
163.18
156.15
148.81
141.30
133.69
126.02
118.33
110.69
103.16
95.80
88.68
81.83
75.25
68.95
62.95
57.25
51.86
46.78
42.03
37.59
33.45
29.61
26.07
22.81
19.83
17.11
14.67
12.48
10.54
8.83
7.35
6.07
4.97
4.05
3.27
2.62
2.09
1.65
1.30
1.01
0.79
0.61
0.47
0.37
0.28
0.22
0.18
0.15
0.13
0.12
0.12
0.13
0.14
0.16
0.18
0.21
0.25
0.28
0.32
0.36
0.41
0.45
0.49
0.54
0.59
0.64
0.70
0.76
0.83
0.90
0.98
1.07
1.16
1.27
1.40
1.53
1.68
1.85
2.04
2.25
2.48
2.74
3.02
3.33
3.67
4.05
4.45
4.89
5.37
5.88
6.43
7.02
7.65
8.33
9.05
9.81
10.62
11.47
12.36
13.31
14.31
15.38
16.49
17.67
18.88
20.09
21.25
22.28
23.10
23.58
23.63
23.13
22.03
20.26
17.85
14.85
11.33
7.46
3.41
-0.64
-4.49
-7.97
-10.94
-13.30
-15.05
-16.19
-16.76
-16.87
-16.59
-15.96
-15.05
-13.89
-12.53
-11.02
-9.41
-7.74
-6.06
-4.38
-2.69
-0.96
0.86
2.78
4.78
6.84
8.96
11.01
13.01
15.01
17.12
19.42
21.88
24.43
26.92
29.31
31.32
32.97
34.45
36.07
38.08
40.54
43.31
46.15
48.92
51.13
52.78
54.18
55.80
57.99
60.77
63.77
66.45
68.37
68.65
67.07
63.81
59.19
53.27
45.60
34.90
18.87
-0.45
-23.40
-50.63
-82.47
-118.04
-154.78
-188.51
-214.44
-228.75
-229.91
-219.97
-202.84
-182.98
-163.85
-147.26
-133.52
-122.08
-112.22
-103.17
-94.73
-86.42
-77.75
-68.57
-59.27
-50.77
-44.07
-39.78
-37.78
-37.47
-37.60
-36.76
-33.85
-28.48
-21.04
-12.49
-3.97
3.66
9.86
14.53
17.77
19.68
20.27
19.50
17.47
14.41
10.66
6.54
2.36
-1.62
-5.21
-8.35
-11.11
-13.67
-16.16
-18.46
-20.07
-20.15
-17.72
-12.02
-2.79
9.58
24.18
39.88
55.67
70.86
85.11
98.26
110.10
120.15
127.73
132.12
132.90
130.10
124.27
116.21
106.76
96.63
86.26
75.95
65.98
56.58
47.94
40.20
33.41
27.61
22.87
19.17
16.35
14.08
11.87
9.24
5.87
1.69
-3.24
-8.79
-14.89
-21.54
-28.83
-36.82
-45.50
-54.64
-63.79
-72.22
-79.16
-84.02
-86.51
-86.77
-85.14
-81.89
-77.13
-70.82
-62.97
-53.80
-43.75
-33.44
-23.41
-14.08
-5.66
1.72
8.13
13.76
19.01
24.21
29.46
34.46
38.63
41.36
42.41
41.97
40.62
38.95
37.32
35.76
34.10
32.23
30.16
28.07
26.17
24.55
23.21
22.11
21.23
20.51
19.85
19.01
17.75
15.97
13.84
11.71
10.02
9.07
8.93
9.55
10.84
12.88
15.83
19.83
24.67
29.69
33.94
36.40
36.47
34.16
30.09
25.32
20.82
17.27
14.81
13.03
11.22
8.60
4.57
-1.15
-8.52
-17.30
-27.16
-37.71
-48.53
-59.07
-68.63
-76.56
-82.46
-86.49
-89.34
-92.16
-96.09
-101.85
-109.45
-118.06
-126.36
-132.90
-136.55
-136.76
-133.54
-127.20
-118.04
-106.14
-91.35
-73.56
-52.98
-30.35
-6.88
16.04
37.26
56.08
72.33
86.13
97.68
107.18
114.75
120.58
124.85
127.84
129.78
130.82
130.99
130.21
128.41
125.51
121.47
116.32
110.13
103.03
95.24
87.00
78.60
70.27
62.19
54.48
47.24
40.57
34.56
29.30
24.81
21.05
17.89
15.22
12.92
10.99
9.49
8.33
7.30
5.88
3.47
-0.36
-5.63
-11.96
-18.65
-25.10
-31.00
-36.41
-41.56
-46.67
-51.71
-56.38
-60.26
-63.05
-64.77
-65.78
-66.69
-68.14
-70.50
-73.65
-77.03
-79.72
-80.80
-79.58
-75.80
-69.63
-61.49
-51.86
-41.22
-30.03
-18.82
-8.13
1.56
10.10
17.67
24.60
31.20
37.49
43.07
47.30
49.64
49.91
48.44
45.93
43.17
40.82
39.21
38.51
38.73
39.92
42.10
45.18
48.80
52.32
54.93
55.93
54.94
52.08
47.86
43.01
38.15
33.65
29.55
25.74
22.16
18.81
15.83
13.29
11.14
9.24
7.48
5.82
4.41
3.37
2.68
2.14
1.44
0.25
-1.57
-3.97
-6.78
-9.80
-12.87
-15.87
-18.80
-21.73
-24.88
-28.56
-32.99
-38.23
-44.06
-50.06
-55.85
-61.23
-66.19
-70.80
-74.99
-78.53
-81.09
-82.41
-82.45
-81.35
-79.30
-76.33
-72.34
-67.22
-61.05
-54.28
-47.60
-41.76
-37.19
-33.87
-31.33
-28.89
-26.03
-22.57
-18.84
-15.46
-13.12
-12.28
-12.99
-14.94
-17.64
-20.75
-24.14
-27.93
-32.14
-36.50
-40.37
-42.89
-43.37
-41.50
-37.47
-31.63
-24.16
-14.87
-3.35
10.60
26.65
43.80
60.68
75.99
88.94
99.34
107.45
113.66
118.27
121.42
123.14
123.48
122.54
120.48
117.46
113.62
109.12
104.20
99.16
94.38
90.19
86.68
83.52
80.02
75.29
68.68
60.11
50.09
39.55
29.41
20.22
12.10
4.81
-1.94
-8.34
-14.41
-20.18
-25.73
-31.20
-36.66
-41.94
-46.62
-50.11
-51.88
-51.66
-49.66
-46.56
-43.41
-41.32
-41.23
-43.60
-48.35
-54.87
-62.20
-69.15
-74.53
-77.31
-76.84
-73.10
-66.70
-58.72
-50.34
-42.45
-35.39
-29.06
-23.11
-17.28
-11.46
-5.73
-0.20
5.10
10.12
14.80
18.99
22.55
25.45
27.81
29.84
31.75
33.54
35.07
36.11
36.43
36.01
35.05
34.01
33.58
34.52
37.36
42.20
48.40
54.75
59.81
62.41
62.08
59.22
54.77
49.83
45.26
41.42
38.22
35.26
32.02
27.94
22.54
15.52
6.83
-3.19
-13.81
-23.90
-32.25
-37.85
-40.17
-39.39
-36.40
-32.43
-28.78
-26.44
-25.82
-26.74
-28.64
-30.73
-32.37
-33.11
-32.85
-31.76
-30.25
-28.82
-28.02
-28.34
-30.24
-34.03
-39.90
-47.75
-57.05
-66.87
-75.93
-82.96
-87.04
-87.94
-86.15
-82.64
-78.54
-74.75
-71.80
-69.72
-68.17
-66.50
-63.89
-59.40
-52.25
-42.10
-29.29
-14.92
-0.61
11.97
21.60
27.81
30.98
32.02
32.05
32.01
32.46
33.50
34.90
36.27
37.30
37.85
37.98
37.84
37.56
37.20
36.73
36.14
35.54
35.13
35.08
35.44
36.04
36.64
36.98
36.95
36.55
35.78
34.61
33.03
31.14
29.31
28.09
27.97
29.06
30.99
33.03
34.42
34.74
34.07
32.86
31.54
30.28
28.93
27.12
24.65
21.54
18.10
14.72
11.64
8.84
6.12
3.15
-0.26
-4.21
-8.63
-13.42
-18.43
-23.48
-28.36
-32.73
-36.28
-38.75
-40.05
-40.23
-39.38
-37.49
-34.34
-29.56
-22.81
-14.05
-3.85
6.74
16.28
23.45
27.44
28.25
26.63
23.86
21.29
19.95
20.32
22.25
25.08
27.92
30.00
30.76
30.10
28.24
25.54
22.40
19.10
15.83
12.74
10.04
7.86
6.33
5.43
5.02
4.92
4.97
5.07
5.13
4.96
4.36
3.18
1.46
-0.45
-2.02
-2.70
-2.27
-0.88
0.95
2.52
3.34
3.35
2.90
2.59
2.95
4.16
5.96
7.71
8.78
8.67
7.27
4.74
1.46
-2.18
-5.78
-9.05
-11.76
-13.88
-15.64
-17.57
-20.45
-24.96
-31.43
-39.57
-48.51
-57.01
-63.86
-68.18
-69.71
-68.69
-65.72
-61.46
-56.48
-51.12
-45.52
-39.75
-33.88
-28.00
-22.21
-16.52
-10.92
-5.33
0.24
5.72
10.86
15.37
19.03
21.73
23.57
24.82
25.88
27.15
28.83
30.87
32.89
34.42
35.02
34.55
33.19
31.23
29.00
26.62
24.13
21.53
18.96
16.62
14.67
13.17
12.01
11.05
10.20
9.48
8.91
8.41
7.81
6.93
5.75
4.46
3.44
3.06
3.54
4.76
6.39
7.95
8.98
9.22
8.68
7.59
6.30
5.13
4.19
3.37
2.40
0.97
-1.05
-3.63
-6.55
-9.56
-12.49
-15.23
-17.83
-20.40
-23.14
-26.28
-30.00
-34.32
-39.01
-43.53
-47.20
-49.36
-49.59
-47.85
-44.55
-40.33
-35.87
-31.59
-27.63
-23.82
-19.87
-15.58
-10.97
-6.30
-1.91
1.91
5.03
7.45
9.24
10.45
11.12
11.39
11.52
11.94
13.01
14.93
17.57
20.58
23.58
26.35
28.86
31.16
33.24
34.88
35.74
35.54
34.33
32.42
30.25
28.17
26.27
24.43
22.53
20.60
18.83
17.45
16.52
15.82
14.97
13.56
11.44
8.78
5.92
3.25
1.07
-0.52
-1.57
-2.27
-2.86
-3.59
-4.62
-5.97
-7.53
-9.13
-10.59
-11.90
-13.13
-14.45
-15.95
-17.64
-19.40
-21.13
-22.83
-24.65
-26.78
-29.42
-32.58
-36.17
-39.82
-43.05
-45.22
-45.76
-44.30
-40.86
-35.81
-29.87
-23.77
-18.12
-13.28
-9.32
-6.15
-3.52
-1.19
1.07
3.38
5.75
8.10
10.26
12.17
13.81
15.17
16.25
16.98
17.35
17.52
17.85
18.64
19.97
21.49
22.51
22.44
21.11
19.04
17.13
16.23
16.68
18.19
20.01
21.37
21.82
21.32
20.19
18.85
17.66
16.81
16.28
15.95
15.67
15.38
15.18
15.21
15.45
15.66
15.36
14.19
12.19
9.89
8.11
7.37
7.52
7.70
6.90
4.52
0.82
-3.20
-6.38
-7.98
-8.05
-7.25
-6.50
-6.43
-7.25
-8.88
-11.07
-13.69
-16.70
-20.07
-23.65
-27.20
-30.47
-33.31
-35.80
-38.10
-40.30
-42.24
-43.44
-43.33
-41.54
-38.22
-34.05
-29.93
-26.58
-24.13
-22.18
-20.02
-17.17
-13.60
-9.68
-5.84
-2.27
1.21
4.99
9.32
14.17
19.25
24.24
28.99
33.52
37.81
41.68
44.65
46.21
45.97
43.87
40.15
35.20
29.43
23.23
16.98
11.06
5.83
1.53
-1.81
-4.38
-6.42
-8.17
-9.69
-10.91
-11.73
-12.10
-12.11
-12.07
-12.32
-13.16
-14.71
-16.88
-19.35
-21.82
-24.07
-26.03
-27.80
-29.55
-31.47
-33.72
-36.34
-39.27
-42.24
-44.82
-46.52
-46.89
-45.79
-43.32
-39.87
-35.87
-31.63
-27.26
-22.69
-17.82
-12.60
-7.06
-1.30
4.51
10.16
15.35
19.74
23.13
25.47
26.94
27.88
28.66
29.53
30.53
31.53
32.29
32.58
32.18
30.98
29.00
26.49
23.83
21.46
19.68
18.47
17.48
16.18
14.17
11.35
8.08
5.01
2.80
1.77
1.72
2.03
1.82
0.34
-2.83
-7.56
-13.29
-19.20
-24.42
-28.39
-30.88
-32.10
-32.59
-32.94
-33.49
-34.22
-34.72
-34.43
-33.07
-30.86
-28.59
-27.21
-27.34
-28.78
-30.52
-31.10
-29.21
-24.26
-16.62
-7.38
2.09
10.64
17.52
22.47
25.51
26.85
26.78
25.72
24.16
22.69
21.82
21.84
22.82
24.45
26.24
27.57
27.89
26.88
24.64
21.63
18.55
16.11
14.78
14.54
15.00
15.58
15.72
15.19
14.05
12.61
11.26
10.27
9.75
9.62
9.65
9.60
9.27
8.63
7.77
6.80
5.78
4.62
3.13
1.18
-1.14
-3.50
-5.54
-7.00
-8.02
-9.08
-10.83
-13.70
-17.74
-22.58
-27.55
-31.92
-35.06
-36.58
-36.31
-34.32
-30.83
-26.22
-21.01
-15.76
-10.98
-7.03
-3.98
-1.65
0.27
2.14
4.10
6.09
7.88
9.26
10.17
10.84
11.66
12.96
14.92
17.40
20.08
22.57
24.53
25.74
26.05
25.39
23.82
21.63
19.30
17.39
16.33
16.25
16.82
17.46
17.44
16.23
13.72
10.21
6.42
3.17
1.13
0.51
0.99
1.79
2.04
1.11
-1.06
-4.09
-7.38
-10.54
-13.49
-16.38
-19.39
-22.47
-25.41
-28.00
-30.17
-32.05
-33.74
-35.09
-35.70
-35.08
-32.94
-29.47
-25.22
-20.84
-16.78
-13.07
-9.49
-5.86
-2.19
1.21
3.98
5.95
7.32
8.57
10.23
12.50
15.17
17.73
19.61
20.49
20.46
19.93
19.41
19.20
19.32
19.54
19.64
19.49
19.19
18.89
18.64
18.32
17.71
16.66
15.33
14.14
13.54
13.77
14.61
15.50
15.83
15.29
14.04
12.64
11.66
11.43
11.90
12.74
13.49
13.83
13.59
12.78
11.52
10.00
8.39
6.80
5.31
3.94
2.72
1.70
0.96
0.59
0.53
0.58
0.49
0.03
-0.85
-2.05
-3.36
-4.66
-5.89
-7.16
-8.60
-10.35
-12.47
-14.86
-17.37
-19.74
-21.77
-23.36
-24.57
-25.57
-26.67
-28.21
-30.47
-33.66
-37.77
-42.54
-47.38
-51.52
-54.16
-54.81
-53.46
-50.60
-47.00
-43.38
-40.12
-37.19
-34.19
-30.62
-26.01
-20.13
-13.06
-5.18
2.88
10.45
16.91
21.95
25.56
28.04
29.89
31.56
33.31
35.16
36.85
38.01
38.28
37.56
36.03
34.12
32.36
31.04
30.14
29.30
28.08
26.23
23.91
21.61
19.89
19.09
19.11
19.49
19.69
19.38
18.59
17.69
17.07
16.95
17.16
17.35
17.13
16.34
15.12
13.81
12.74
12.05
11.63
11.21
10.54
9.56
8.41
7.35
6.56
6.05
5.57
4.81
3.62
2.10
0.59
-0.55
-1.21
-1.64
-2.30
-3.63
-5.75
-8.40
-11.11
-13.48
-15.38
-16.90
-18.25
-19.56
-20.94
-22.45
-24.30
-26.73
-29.84
-33.51
-37.29
-40.61
-42.96
-44.06
-43.85
-42.37
-39.73
-36.04
-31.54
-26.60
-21.67
-17.13
-13.14
-9.65
-6.49
-3.57
-0.86
1.58
3.74
5.73
7.72
9.83
12.00
13.99
15.48
16.20
16.14
15.57
14.93
14.68
15.10
16.15
17.57
18.99
20.16
20.98
21.53
21.91
22.14
22.13
21.79
21.13
20.30
19.57
19.13
19.02
19.05
18.92
18.37
17.27
15.64
13.63
11.50
9.53
7.97
6.96
6.45
6.19
5.88
5.21
4.07
2.53
0.79
-0.93
-2.54
-4.08
-5.54
-6.90
-8.08
-9.00
-9.73
-10.50
-11.59
-13.18
-15.28
-17.64
-19.89
-21.72
-23.03
-24.00
-25.09
-26.73
-29.15
-32.22
-35.44
-38.17
-39.84
-40.14
-39.11
-36.97
-34.04
-30.58
-26.77
-22.77
-18.71
-14.74
-10.97
-7.47
-4.29
-1.48
0.91
2.86
4.48
5.98
7.59
9.40
11.30
13.06
14.44
15.41
16.14
16.92
17.95
19.19
20.36
21.11
21.17
20.51
19.32
17.92
16.61
15.62
15.09
15.06
15.55
16.51
17.84
19.42
21.06
22.54
23.63
24.14
23.95
23.03
21.46
19.34
16.84
14.11
11.35
8.83
6.83
5.52
4.87
4.59
4.29
3.56
2.23
0.35
-1.84
-4.04
-5.92
-7.26
-7.84
-7.57
-6.59
-5.24
-4.02
-3.41
-3.70
-4.87
-6.70
-8.90
-11.29
-13.75
-16.18
-18.43
-20.31
-21.66
-22.54
-23.20
-24.01
-25.29
-27.06
-29.02
-30.60
-31.20
-30.37
-28.06
-24.52
-20.29
-15.89
-11.65
-7.67
-3.88
-0.15
3.61
7.35
11.00
14.39
17.22
19.13
19.79
18.97
16.70
13.28
9.13
4.74
0.55
-3.02
-5.55
-6.67
-6.15
-4.08
-0.88
2.80
6.40
9.64
12.52
15.26
18.03
20.88
23.77
26.65
29.44
32.00
33.96
34.66
33.43
29.78
23.74
15.99
7.55
-0.46
-7.19
-12.31
-16.00
-18.73
-21.09
-23.46
-25.97
-28.54
-30.94
-33.08
-34.98
-36.74
-38.46
-40.05
-41.31
-42.03
-42.15
-41.78
-41.11
-40.30
-39.33
-38.05
-36.28
-33.93
-30.95
-27.29
-22.84
-17.50
-11.33
-4.66
2.01
8.12
13.36
17.72
21.41
24.68
27.61
30.12
32.09
33.46
34.29
34.73
34.85
34.65
34.10
33.19
32.02
30.75
29.52
28.40
27.33
26.14
24.65
22.77
20.48
17.94
15.36
12.97
10.94
9.28
7.86
6.50
5.11
3.68
2.34
1.29
0.63
0.38
0.41
0.55
0.68
0.81
1.07
1.64
2.62
3.87
5.10
5.85
5.83
4.99
3.57
2.02
0.69
-0.23
-0.79
-1.17
-1.57
-2.22
-3.29
-4.93
-7.22
-10.09
-13.28
-16.39
-19.09
-21.21
-22.93
-24.65
-26.84
-29.80
-33.47
-37.53
-41.39
-44.44
-46.18
-46.35
-44.93
-42.19
-38.52
-34.30
-29.75
-24.88
-19.62
-13.95
-8.13
-2.66
1.91
5.21
7.34
8.77
10.18
12.04
14.46
17.10
19.40
20.91
21.51
21.46
21.23
21.29
21.83
22.78
23.89
24.89
25.61
26.05
26.25
26.27
26.17
25.95
25.63
25.30
25.00
24.80
24.68
24.56
24.36
23.96
23.28
22.26
20.90
19.30
17.63
16.06
14.73
13.70
12.91
12.33
11.88
11.53
11.19
10.79
10.31
9.80
9.40
9.27
9.49
10.00
10.57
10.92
10.72
9.66
7.47
4.03
-0.59
-5.97
-11.39
-16.05
-19.38
-21.27
-22.06
-22.29
-22.41
-22.58
-22.72
-22.71
-22.64
-22.83
-23.64
-25.34
-27.93
-31.20
-34.85
-38.55
-41.91
-44.47
-45.74
-45.37
-43.33
-39.94
-35.73
-31.22
-26.64
-22.00
-17.18
-12.24
-7.47
-3.25
0.18
2.86
5.12
7.26
9.42
11.47
13.11
14.15
14.65
14.89
15.22
15.88
16.88
18.05
19.14
19.99
20.54
20.79
20.78
20.61
20.36
20.22
20.38
20.95
21.89
22.99
23.88
24.26
24.00
23.30
22.48
21.97
21.91
22.14
22.30
22.02
21.14
19.76
18.16
16.63
15.30
14.20
13.28
12.58
12.13
11.89
11.66
11.07
9.80
7.63
4.66
1.23
-2.23
-5.34
-7.92
-9.96
-11.57
-12.95
-14.31
-15.81
-17.54
-19.51
-21.67
-23.95
-26.31
-28.78
-31.43
-34.25
-37.16
-39.91
-42.16
-43.58
-43.91
-43.08
-41.21
-38.52
-35.24
-31.53
-27.41
-22.83
-17.84
-12.60
-7.42
-2.63
1.53
5.01
7.92
10.41
12.56
14.40
15.93
17.20
18.32
19.38
20.37
21.22
21.86
22.34
22.77
23.32
23.98
24.58
24.80
24.34
23.08
21.10
18.62
15.92
13.33
11.20
9.89
9.65
10.51
12.16
14.11
15.83
17.00
17.50
17.37
16.64
15.28
13.25
10.69
7.89
5.30
3.29
2.03
1.49
1.56
2.14
3.23
4.79
6.68
8.55
10.03
10.80
10.76
10.03
8.84
7.43
5.91
4.25
2.42
0.47
-1.47
-3.25
-4.73
-5.98
-7.10
-8.32
-9.83
-11.66
-13.61
-15.33
-16.56
-17.22
-17.51
-17.78
-18.41
-19.81
-22.11
-25.07
-27.97
-29.86
-29.88
-27.60
-23.11
-17.17
-11.05
-5.92
-2.21
0.76
4.38
10.33
19.77
33.04
49.19
65.82
79.71
87.82
88.45
81.72
69.71
55.60
43.35
37.25
39.08
46.26
53.44
56.35
52.95
44.66
33.12
18.83
0.60
-24.46
-57.79
-100.31
-152.07
-212.42
-279.74
-350.73
-419.59
-478.48
-519.58
-537.53
-531.66
-506.13
-468.48
-426.73
-386.90
-351.69
-321.05
-293.87
-269.06
-245.95
-223.62
-200.55
-174.79
-144.71
-109.68
-70.31
-28.19
14.87
57.66
100.06
143.02
188.22
237.32
291.21
349.04
407.78
462.66
508.36
540.80
558.64
563.59
559.49
550.40
538.93
525.43
508.70
487.40
461.35
431.68
400.01
367.10
332.26
293.69
249.64
199.66
144.97
87.92
30.83
-25.05
-79.57
-132.94
-184.66
-233.03
-275.39
-309.18
-332.91
-346.64
-351.61
-349.16
-339.74
-322.50
-295.67
-257.46
-207.16
-145.77
-76.25
-3.16
68.03
131.93
184.09
221.64
243.62
250.77
245.13
229.55
207.14
180.97
153.75
127.58
103.71
82.52
63.67
46.56
30.76
16.19
3.06
-8.35
-17.86
-25.40
-30.92
-34.49
-36.41
-37.50
-39.01
-42.23
-47.95
-56.06
-65.53
-74.83
-82.52
-87.64
-89.89
-89.44
-86.61
-81.65
-74.69
-65.93
-55.89
-45.54
-36.13
-28.72
-23.75
-20.83
-18.85
-16.62
-13.42
-9.30
-4.85
-0.66
3.13
6.91
11.21
16.21
21.43
25.99
29.07
30.33
30.01
28.74
27.19
25.78
24.56
23.22
21.36
18.70
15.46
12.40
10.70
11.48
15.12
21.10
27.98
34.15
38.33
39.96
38.95
35.17
28.17
17.23
1.80
-18.10
-42.02
-69.36
-99.69
-132.66
-167.43
-202.08
-233.46
-257.66
-271.20
-272.07
-260.41
-238.29
-208.74
-174.57
-137.57
-98.47
-57.45
-15.01
27.69
68.99
107.38
142.00
172.72
199.49
221.65
237.84
246.67
248.04
244.11
239.08
237.87
244.00
257.87
276.37
293.76
303.69
301.24
284.31
254.05
214.01
168.90
122.97
78.94
37.51
-2.41
-43.23
-88.09
-139.93
-200.34
-267.93
-337.56
-400.61
-447.24
-469.65
-464.99
-436.35
-391.32
-338.71
-285.25
-233.86
-183.99
-133.32
-79.62
-21.91
39.20
101.68
162.40
217.60
263.66
297.90
319.20
327.81
324.69
310.81
286.96
254.34
215.25
173.17
132.03
94.59
61.21
29.57
-4.30
-44.51
-93.88
-152.95
-219.65
-289.07
-354.07
-406.40
-438.82
-447.15
-431.70
-396.90
-349.45
-295.75
-239.89
-183.19
-125.10
-64.85
-2.94
58.30
115.03
162.86
198.09
218.84
225.73
221.78
211.51
199.30
188.11
178.86
171.07
163.99
157.68
153.01
150.84
150.78
150.61
146.83
136.27
117.53
91.80
62.43
33.41
7.82
-13.07
-29.84
-43.99
-56.87
-68.85
-79.15
-86.33
-89.07
-86.87
-80.42
-71.51
-62.46
-55.23
-50.87
-49.11
-48.87
-48.98
-49.07
-50.04
-53.94
-63.26
-79.72
-103.20
-131.00
-157.91
-177.37
-183.28
-171.72
-141.86
-96.03
-38.79
24.08
86.52
142.73
187.78
218.26
233.07
233.79
224.30
209.60
194.06
180.23
168.32
156.69
142.79
124.01
98.22
63.87
20.07
-33.06
-93.67
-157.46
-217.74
-266.34
-295.82
-301.92
-285.12
-250.43
-205.33
-156.54
-107.40
-57.30
-3.45
55.88
118.77
179.25
229.25
262.09
275.15
270.57
253.62
229.89
202.80
172.86
138.42
97.32
48.26
-8.53
-71.29
-136.69
-199.92
-255.06
-296.08
-318.60
-321.36
-306.74
-279.76
-246.09
-209.94
-173.07
-135.08
-94.42
-49.79
-1.06
50.21
100.86
146.80
184.29
211.28
228.29
238.09
244.10
248.48
250.78
248.34
238.09
218.69
191.59
160.38
128.66
97.95
66.89
31.94
-11.01
-64.70
-129.16
-201.01
-273.62
-338.35
-386.63
-412.51
-414.43
-395.73
-363.12
-323.77
-282.85
-242.08
-200.26
-154.95
-104.51
-49.48
7.03
60.02
103.86
133.75
147.26
145.31
132.53
116.25
104.63
104.35
118.71
146.92
184.70
225.79
263.62
292.61
308.84
310.20
296.35
268.73
230.45
185.80
139.65
95.77
55.32
16.14
-26.12
-75.53
-132.52
-192.08
-244.31
-277.40
-281.80
-253.48
-195.25
-115.74
-26.99
58.31
129.25
178.38
202.82
204.37
188.69
163.45
135.88
110.78
89.68
71.32
52.87
31.35
4.83
-26.22
-58.06
-83.86
-95.48
-86.78
-56.80
-10.92
40.87
88.04
123.66
146.30
158.89
165.53
168.56
167.69
161.32
148.75
131.42
112.52
95.30
81.42
70.41
60.42
49.45
36.59
22.31
8.27
-3.64
-12.03
-16.73
-18.76
-19.87
-21.71
-25.07
-29.60
-34.28
-38.20
-41.13
-43.69
-46.72
-50.66
-55.20
-59.58
-63.06
-65.52
-67.53
-69.87
-72.99
-76.70
-80.32
-83.10
-84.65
-85.06
-84.68
-83.72
-82.07
-79.32
-75.16
-69.60
-63.22
-56.88
-51.43
-47.28
-44.24
-41.65
-38.84
-35.42
-31.52
-27.72
-24.74
-23.18
-23.37
-25.35
-28.78
-32.99
-36.93
-39.42
-39.55
-37.05
-32.57
-27.52
-23.54
-21.84
-22.62
-25.06
-27.59
-28.64
-27.20
-23.23
-17.65
-11.95
-7.70
-5.94
-6.83
-9.59
-12.93
-15.60
-16.92
-16.95
-16.22
-15.28
-14.32
-13.19
-11.73
-10.11
-8.93
-8.93
-10.49
-13.34
-16.64
-19.42
-20.98
-21.20
-20.41
-19.21
-18.15
-17.59
-17.70
-18.35
-19.26
-19.99
-20.13
-19.48
-18.18
-16.69
-15.54
-15.14
-15.67
-17.04
-19.06
-21.39
-23.74
-25.79
-27.29
-28.21
-29.08
-30.46
-32.55
-35.12
-37.67
-39.73
-41.12
-42.08
-43.12
-45.06
-48.16
-51.80
-54.64
-55.39
-53.40
-48.94
-42.96
-36.66
-31.66
-28.67
-27.17
-25.92
-23.91
-20.96
-17.42
-13.77
-10.26
-8.93
-10.88
-15.36
-20.41
-24.32
-26.38
-26.40
-24.30
-20.09
-18.48
-22.94
-33.29
-46.24
-58.42
-68.11
-74.77
-78.37
-79.04
-84.05
-98.20
-120.01
-143.15
-161.76
-173.50
-178.86
-179.82
-178.81
-187.45
-213.57
-256.30
-307.81
-360.50
-411.28
-460.54
-510.00
-503.00
-412.94
-259.75
-93.71
46.05
147.07
213.14
253.36
276.73
290.52
290.74
274.71
246.34
214.85
188.40
170.13
159.73
155.57
156.33
153.94
143.31
125.74
105.74
90.19
81.67
80.01
83.67
91.17
96.37
94.55
85.12
70.94
55.66
41.27
28.79
18.60
11.12
3.92
-5.10
-16.15
-27.61
-37.29
-43.69
-45.43
-44.75
-42.60
-40.58
-39.63
-39.61
-39.48
-38.04
-34.86
-30.10
-24.48
-18.57
-13.13
-8.97
-6.69
-6.45
-7.97
-10.46
-12.71
-13.44
-11.29
-5.66
3.19
13.93
24.29
31.46
32.82
26.93
14.38
-2.05
-18.42
-31.11
-38.11
-39.50
-36.97
-32.67
-28.08
-23.73
-19.30
-14.58
-9.84
-5.71
-2.64
-0.43
1.84
5.30
10.63
17.89
26.26
34.54
41.80
47.76
52.92
58.38
65.26
74.21
85.11
97.17
109.28
120.57
130.80
140.45
150.59
162.60
177.85
197.19
220.48
246.12
271.04
291.25
302.98
303.90
293.98
275.44
251.73
226.26
201.30
177.74
155.52
134.46
114.74
97.00
81.87
69.59
59.74
51.48
43.93
36.55
29.31
22.61
17.03
12.91
10.19
8.41
6.85
4.95
2.50
-0.18
-2.50
-3.92
-4.20
-3.58
-2.65
-2.01
-2.07
-2.89
-4.21
-5.69
-7.05
-8.21
-9.28
-10.49
-12.03
-14.03
-16.49
-19.31
-22.29
-25.12
-27.42
-28.79
-29.00
-28.07
-26.40
-24.62
-23.37
-23.01
-23.42
-24.13
-24.51
-24.12
-22.96
-21.36
-19.80
-18.54
-17.47
-16.23
-14.41
-11.92
-9.03
-6.20
-3.87
-2.17
-0.89
0.23
1.36
2.32
2.77
2.42
1.26
-0.42
-2.17
-3.61
-4.64
-5.34
-5.89
-6.34
-6.65
-6.77
-6.75
-6.86
-7.50
-9.03
-11.52
-14.63
-17.75
-20.18
-21.46
-21.65
-21.34
-21.46
-22.89
-26.09
-30.85
-36.40
-41.58
-45.27
-46.71
-45.79
-42.96
-39.16
-35.45
-32.62
-30.90
-29.90
-28.80
-26.85
-23.87
-20.43
-17.58
-16.30
-16.87
-18.57
-20.01
-19.84
-17.49
-13.51
-9.41
-7.03
-7.90
-12.88
-21.84
-33.49
-45.21
-53.26
-53.55
-42.96
-20.78
10.63
46.32
80.40
108.12
127.37
138.85
145.03
148.54
150.78
151.46
149.09
141.98
129.10
110.42
86.71
59.24
29.46
-1.09
-30.70
-57.73
-80.73
-98.77
-111.50
-119.08
-121.82
-119.92
-113.50
-102.74
-88.18
-70.81
-51.88
-32.74
-14.62
1.30
13.90
22.36
26.51
27.14
25.94
25.03
26.34
31.02
39.04
49.18
59.41
67.49
71.70
71.62
68.28
63.69
59.83
57.29
54.77
49.38
37.90
18.14
-10.39
-46.64
-88.86
-135.18
-183.68
-231.97
-276.89
-315.04
-343.74
-362.21
-371.78
-375.22
-375.23
-373.06
-368.01
-358.10
-341.19
-316.17
-283.61
-245.57
-205.05
-165.09
-128.12
-95.31
-66.38
-39.67
-12.59
17.76
53.86
97.03
146.50
198.87
248.32
287.96
312.15
318.84
310.76
294.63
278.74
269.91
271.08
280.68
293.44
302.27
300.25
282.32
246.54
195.06
133.87
71.74
18.01
-20.11
-39.40
-40.55
-26.68
-1.60
31.25
67.71
101.36
123.37
124.93
101.58
56.89
2.36
-47.15
-80.39
-95.72
-101.62
-111.19
-133.97
-169.75
-208.58
-236.62
-243.91
-228.67
-197.16
-158.78
-120.30
-83.01
-43.74
0.81
50.42
100.40
145.05
179.07
199.15
204.38
196.15
177.82
153.50
127.09
101.23
80.23
66.74
60.81
60.48
63.99
71.06
81.52
93.34
101.84
105.77
104.33
96.46
80.88
57.97
31.52
7.81
-6.49
-5.98
18.95
75.07
162.32
272.52
392.73
510.05
613.68
695.77
714.21
644.18
494.44
307.52
131.56
-6.19
-101.99
-165.19
-207.44
-237.40
-253.29
-251.80
-234.08
-207.58
-182.89
-166.93
-161.27
-163.45
-169.76
-172.28
-165.54
-149.75
-131.13
-118.10
-116.90
-130.70
-156.70
-191.61
-228.38
-259.83
-280.88
-289.83
-287.52
-275.73
-256.55
-232.01
-204.29
-173.61
-140.32
-106.53
-76.70
-56.17
-48.97
-56.40
-76.60
-105.53
-136.89
-163.77
-179.72
-180.03
-162.93
-130.48
-88.68
-46.11
-11.47
9.50
15.38
8.34
-7.98
-30.37
-56.53
-84.25
-110.09
-129.49
-138.01
-133.74
-118.68
-98.17
-78.28
-62.79
-51.35
-40.11
-24.30
-1.06
28.88
61.42
91.07
113.17
125.40
127.95
122.87
113.28
102.86
95.40
94.23
101.10
115.25
133.04
148.80
156.62
152.29
134.56
105.39
69.18
31.49
-2.32
-28.22
-44.35
-51.30
-51.69
-49.09
-46.78
-46.73
-49.50
-54.83
-62.43
-72.27
-84.16
-97.03
-108.41
-114.74
-112.41
-98.88
-73.54
-37.89
4.74
49.78
92.17
127.32
152.17
166.20
171.78
174.01
179.03
191.70
213.49
241.18
267.35
282.45
278.03
250.01
201.00
140.07
80.22
34.29
10.73
11.54
33.03
68.85
113.13
161.93
212.31
260.06
298.35
318.70
314.02
281.56
224.24
149.16
65.09
-19.59
-97.43
-161.02
-202.64
-214.89
-193.26
-138.99
-60.60
27.30
107.74
166.14
194.34
192.02
165.52
124.41
77.56
30.48
-15.28
-60.93
-108.69
-160.42
-217.06
-278.49
-343.01
-406.53
-462.47
-502.80
-520.36
-511.52
-477.16
-421.89
-351.52
-271.20
-185.11
-97.81
-15.51
54.22
104.65
132.70
140.19
132.89
117.24
97.26
73.17
42.50
2.07
-49.92
-113.02
-184.62
-260.18
-333.58
-397.73
-445.83
-473.28
-479.14
-466.50
-440.87
-407.97
-371.76
-333.94
-294.91
-255.28
-216.56
-180.41
-147.54
-116.43
-83.41
-43.82
5.75
65.11
129.50
189.74
235.47
257.97
253.39
224.47
180.18
133.00
94.80
73.45
71.42
87.62
117.86
156.02
194.41
224.42
238.26
231.38
204.76
165.55
126.45
99.44
91.16
101.17
124.24
154.68
188.64
224.19
259.04
290.83
314.93
326.46
323.27
307.78
286.65
267.11
253.41
232.76
195.85
140.99
76.50
15.24
-32.35
-60.86
-70.68
-67.07
-57.92
-49.23
-44.84
-45.48
-48.04
-50.42
-50.14
-45.52
-36.39
-23.97
-9.30
5.24
16.09
19.45
12.82
-2.80
-22.94
-42.46
-54.21
-52.08
-34.79
-6.70
23.54
46.05
53.61
43.22
16.13
-23.23
-68.96
-115.52
-158.56
-195.13
-223.68
-243.62
-255.35
-259.79
-257.74
-249.57
-235.45
-215.67
-191.02
-162.97
-133.18
-103.22
-74.54
-48.37
-26.18
-9.38
1.28
6.36
7.95
9.22
13.37
22.54
37.17
55.88
75.99
94.43
108.49
116.34
117.18
111.35
100.18
85.83
70.91
58.01
49.25
45.82
47.77
54.03
62.72
71.64
78.83
83.04
83.93
82.00
78.12
73.15
67.54
61.37
54.60
47.43
40.41
34.37
30.12
28.07
28.10
29.54
31.42
32.80
32.98
31.67
29.01
25.43
21.61
18.22
15.74
14.37
13.85
13.63
12.87
10.86
7.12
1.65
-5.07
-12.20
-18.75
-23.88
-27.17
-28.82
-29.63
-30.84
-33.74
-39.20
-47.20
-56.69
-65.78
-72.30
-74.54
-71.87
-64.95
-55.41
-45.30
-36.39
-29.70
-25.35
-22.80
-21.21
-19.77
-17.94
-15.42
-12.11
-8.04
-3.31
1.90
7.27
12.38
16.81
20.23
22.64
24.31
25.75
27.45
29.72
32.56
35.73
38.87
41.63
43.79
45.19
45.74
45.44
44.42
43.01
41.69
40.95
41.04
41.90
43.05
43.75
43.09
40.30
34.92
27.09
17.65
8.15
0.45
-3.90
-4.19
-0.99
3.98
8.32
9.77
7.01
0.08
-9.69
-20.13
-28.89
-34.21
-35.28
-32.37
-26.65
-19.85
-13.81
-10.10
-9.66
-12.65
-18.42
-25.76
-33.29
-39.77
-44.45
-47.10
-47.81
-46.77
-44.14
-40.02
-34.55
-28.05
-21.06
-14.38
-8.85
-5.18
-3.71
-4.28
-6.21
-8.44
-9.94
-9.98
-8.43
-5.74
-2.67
0.05
2.09
3.59
5.02
6.93
9.68
13.28
17.52
22.01
26.32
30.11
33.09
35.10
36.10
36.25
35.88
35.46
35.45
36.16
37.64
39.53
41.18
41.76
40.62
37.52
32.90
27.81
23.54
21.14
20.97
22.47
24.42
25.44
24.55
21.51
16.79
11.29
5.97
1.61
-1.33
-2.61
-2.12
0.16
4.08
9.32
15.37
21.68
27.86
33.84
39.97
46.83
55.05
64.90
76.20
88.26
100.20
111.35
121.53
131.20
141.20
152.30
164.61
177.27
188.54
196.21
198.15
192.89
179.84
159.24
132.03
99.46
62.74
22.62
-21.16
-70.19
-127.01
-193.72
-269.98
-351.19
-428.49
-490.74
-528.28
-536.56
-517.73
-479.57
-431.90
-382.72
-335.81
-290.71
-244.64
-194.85
-139.99
-80.44
-17.92
44.67
103.11
151.98
185.51
199.48
193.05
169.57
135.62
98.50
63.58
32.75
4.90
-22.12
-49.21
-74.95
-96.20
-109.86
-114.61
-111.57
-103.51
-93.28
-82.23
-69.77
-53.87
-32.31
-3.71
32.05
73.87
119.84
167.40
213.43
254.53
287.52
310.28
322.33
324.77
319.63
308.84
293.71
274.99
253.43
230.05
206.12
182.67
160.19
138.61
117.60
96.71
75.18
51.74
24.88
-6.24
-40.63
-75.06
-104.77
-125.44
-135.08
-134.89
-128.49
-120.05
-112.32
-106.06
-100.52
-94.80
-88.78
-83.18
-78.95
-76.40
-74.79
-72.45
-67.76
-59.94
-49.67
-38.87
-29.87
-24.29
-22.08
-21.57
-20.23
-15.94
-8.07
2.18
12.42
20.07
23.34
21.76
15.97
7.35
-2.59
-12.52
-21.48
-28.97
-34.96
-39.83
-44.12
-48.27
-52.36
-56.17
-59.36
-61.83
-63.81
-65.64
-67.48
-68.99
-69.36
-67.67
-63.31
-56.30
-47.27
-37.08
-26.37
-15.50
-4.59
6.03
15.57
23.00
27.65
29.77
30.58
31.61
33.58
35.90
36.85
34.94
30.11
24.41
21.21
23.54
32.44
46.30
61.70
74.97
83.86
88.24
89.79
90.90
93.55
98.44
105.11
111.96
116.92
118.13
114.52
106.04
93.68
79.06
63.86
49.70
37.76
28.78
23.19
21.04
21.80
24.22
26.46
26.20
21.90
12.61
-1.53
-19.34
-39.09
-59.07
-77.98
-95.19
-111.12
-125.32
-137.99
-149.28
-159.26
-167.87
-174.93
-180.12
-183.11
-185.05
-185.23
-184.71
-184.63
-185.38
-186.16
-185.18
-180.63
-171.73
-161.03
-147.84
-132.86
-115.33
-93.24
-64.59
-28.77
12.70
56.57
96.42
131.19
158.12
175.35
181.92
178.00
165.27
146.86
142.06
135.29
130.86
128.26
125.51
120.20
110.16
93.61
69.10
35.98
-7.02
-53.27
-95.75
-126.05
-137.22
-126.66
-97.39
-56.92
-14.22
21.56
48.86
67.66
79.56
85.95
87.14
82.90
73.64
61.17
47.06
34.96
25.49
16.97
6.18
-9.97
-32.61
-59.83
-87.13
-109.58
-122.21
-123.35
-114.44
-99.04
-81.26
-64.16
-48.99
-35.53
-23.23
-11.66
-1.60
5.39
7.93
5.52
-1.19
-10.74
-21.89
-34.37
-48.80
-65.80
-84.67
-102.65
-115.24
-117.77
-107.45
-84.75
-53.45
-19.26
12.16
36.86
53.09
60.85
60.94
54.23
41.62
24.49
5.03
-13.90
-29.35
-39.30
-43.23
-42.18
-38.18
-33.49
-29.86
-28.14
-28.35
-29.99
-32.40
-35.08
-37.78
-40.46
-43.07
-45.45
-47.17
-47.67
-46.43
-43.26
-38.29
-32.05
-25.21
-18.48
-12.50
-7.87
-5.15
-4.85
-7.23
-12.12
-18.85
-26.24
-32.87
-37.44
-39.05
-37.51
-33.40
-27.98
-22.82
-19.43
-18.80
-21.12
-25.88
-31.93
-37.96
-42.72
-45.30
-45.21
-42.41
-37.24
-30.27
-22.22
-13.66
-4.96
3.79
12.68
21.84
31.32
41.11
51.10
61.20
71.35
81.46
91.28
100.45
108.44
114.77
119.09
121.31
121.58
120.23
117.61
113.98
109.52
104.27
98.24
91.52
84.36
77.12
70.22
63.98
58.56
53.93
49.95
46.42
43.29
40.67
38.77
37.82
37.91
38.85
40.19
41.33
41.72
40.96
38.98
36.06
32.72
29.55
27.02
25.33
24.28
23.39
21.97
19.48
15.74
10.97
5.84
1.06
-2.73
-5.33
-6.89
-7.89
-8.86
-10.17
-11.92
-13.99
-16.12
-18.04
-19.60
-20.79
-21.80
-22.99
-24.87
-27.95
-32.49
-38.27
-44.61
-50.38
-54.38
-55.70
-54.15
-50.23
-45.00
-39.61
-34.87
-31.02
-27.76
-24.56
-20.89
-16.47
-11.29
-5.49
0.68
6.94
13.01
18.53
23.22
26.97
30.02
32.95
36.54
41.40
47.71
55.03
62.42
68.69
72.78
74.10
72.58
68.67
63.20
57.12
51.28
46.35
42.55
39.74
37.42
34.95
31.80
27.63
22.50
16.64
10.45
4.40
-1.14
-5.93
-9.92
-13.32
-16.52
-19.96
-23.89
-28.16
-32.22
-35.33
-36.90
-36.82
-35.49
-33.64
-31.96
-30.77
-29.93
-29.01
-27.59
-25.54
-23.17
-21.00
-19.51
-18.87
-18.86
-18.98
-18.73
-17.88
-16.61
-15.48
-15.17
-16.20
-18.64
-22.02
-25.52
-28.27
-29.66
-29.56
-28.32
-26.54
-24.97
-24.25
-24.75
-26.50
-29.12
-31.86
-33.72
-33.67
-31.09
-25.91
-18.66
-10.34
-1.98
5.58
11.93
17.12
21.42
25.29
29.10
33.09
37.33
41.70
46.01
49.95
53.27
55.74
57.20
57.59
56.97
55.53
53.53
51.25
48.90
46.50
43.89
40.82
37.12
32.81
28.15
23.62
19.70
16.65
14.51
13.05
11.93
10.90
9.79
8.59
7.28
5.82
4.08
1.99
-0.45
-3.11
-5.76
-8.25
-10.50
-12.48
-14.16
-15.35
-15.78
-15.16
-13.39
-10.63
-7.29
-3.88
-0.79
1.79
3.88
5.57
6.86
7.65
7.77
7.12
5.83
4.26
2.85
1.93
1.58
1.61
1.72
1.64
1.37
1.13
1.25
1.98
3.34
5.13
7.04
8.89
10.69
12.63
14.85
17.24
19.42
20.79
20.87
19.54
17.20
14.65
12.78
12.16
12.82
14.23
15.54
15.96
15.01
12.72
9.51
6.01
2.80
0.25
-1.50
-2.51
-2.86
-2.60
-1.78
-0.54
0.78
1.69
1.63
0.18
-2.71
-6.74
-11.35
-15.88
-19.85
-23.02
-25.39
-27.09
-28.34
-29.30
-30.17
-31.15
-32.52
-34.53
-37.33
-40.79
-44.47
-47.66
-49.62
-49.85
-48.26
-45.14
-41.05
-36.49
-31.77
-27.04
-22.36
-17.89
-13.87
-10.53
-7.95
-5.98
-4.35
-2.74
-0.98
0.99
3.13
5.39
7.78
10.32
13.01
15.74
18.40
20.83
22.89
24.51
25.64
26.23
26.35
26.07
25.59
25.07
24.68
24.47
24.39
24.26
23.91
23.18
22.08
20.71
19.30
18.07
17.11
16.39
15.75
15.02
14.15
13.19
12.26
11.43
10.71
10.05
9.41
8.82
8.34
8.01
7.73
7.33
6.63
5.59
4.32
3.03
1.87
0.86
-0.13
-1.27
-2.65
-4.29
-6.08
-7.88
-9.56
-11.03
-12.28
-13.33
-14.34
-15.48
-16.97
-18.87
-21.07
-23.29
-25.20
-26.60
-27.48
-28.04
-28.54
-29.22
-30.24
-31.67
-33.56
-35.84
-38.31
-40.51
-41.88
-41.89
-40.27
-37.17
-33.07
-28.61
-24.34
-20.56
-17.32
-14.48
-11.85
-9.32
-6.82
-4.34
-1.88
0.54
2.89
5.16
7.26
9.13
10.70
11.95
12.90
13.67
14.38
15.11
15.87
16.56
17.12
17.46
17.59
17.53
17.31
16.96
16.53
16.12
15.91
16.06
16.64
17.57
18.66
19.67
20.47
20.93
21.00
20.65
19.83
18.59
17.02
15.33
13.68
12.17
10.77
9.46
8.23
7.19
6.47
6.10
5.96
5.75
5.22
4.22
2.81
1.22
-0.33
-1.72
-2.96
-4.07
-5.07
-5.91
-6.49
-6.83
-7.06
-7.41
-8.06
-9.08
-10.43
-11.94
-13.39
-14.55
-15.19
-15.07
-14.04
-12.08
-9.35
-6.18
-3.01
-0.21
2.04
3.73
5.06
6.22
7.26
8.13
8.64
8.67
8.27
7.66
7.18
7.09
7.43
8.02
8.55
8.77
8.61
8.15
7.59
7.04
6.56
6.17
5.91
5.83
6.00
6.39
6.89
7.33
7.60
7.63
7.39
6.89
6.11
5.00
3.58
1.91
0.15
-1.51
-2.96
-4.15
-5.12
-5.93
-6.71
-7.57
-8.61
-9.85
-11.28
-12.78
-14.19
-15.37
-16.36
-17.29
-18.39
-19.92
-22.03
-24.69
-27.62
-30.39
-32.48
-33.50
-33.23
-31.76
-29.41
-26.56
-23.58
-20.65
-17.77
-14.89
-12.00
-9.13
-6.40
-3.89
-1.62
0.48
2.49
4.39
6.12
7.56
8.67
9.51
10.26
11.17
12.36
13.83
15.46
17.08
18.55
19.82
20.86
21.64
22.07
22.09
21.61
20.72
19.54
18.29
17.14
16.19
15.45
14.88
14.33
13.67
12.74
11.47
9.90
8.12
6.25
4.35
2.39
0.32
-1.82
-3.87
-5.52
-6.51
-6.69
-6.13
-5.08
-3.89
-2.91
-2.45
-2.63
-3.39
-4.41
-5.20
-5.27
-4.39
-2.75
-0.92
0.35
0.50
-0.66
-2.91
-5.81
-8.91
-11.97
-14.88
-17.62
-20.11
-22.28
-24.15
-25.99
-28.24
-31.28
-35.15
-39.28
-42.62
-44.01
-42.75
-38.97
-33.61
-28.05
-23.48
-20.48
-18.84
-17.83
-16.61
-14.60
-11.63
-7.93
-3.97
-0.29
2.67
4.67
5.70
5.96
5.78
5.55
5.59
6.18
7.46
9.38
11.68
13.85
15.32
15.70
14.98
13.59
12.16
11.27
11.11
11.47
11.82
11.66
10.67
8.90
6.74
4.85
3.95
4.56
6.78
10.15
13.73
16.47
17.69
17.34
16.08
14.85
14.45
15.09
16.35
17.40
17.43
16.00
13.21
9.67
6.17
3.40
1.72
1.05
1.03
1.21
1.23
0.94
0.33
-0.58
-1.80
-3.41
-5.43
-7.81
-10.29
-12.55
-14.33
-15.45
-15.96
-16.01
-15.79
-15.53
-15.47
-15.83
-16.78
-18.43
-20.74
-23.51
-26.39
-28.90
-30.59
-31.06
-30.18
-28.03
-24.99
-21.54
-18.13
-14.99
-12.17
-9.51
-6.88
-4.27
-1.83
0.24
1.84
3.06
4.12
5.23
6.47
7.78
9.00
10.01
10.83
11.56
12.31
13.15
14.06
15.02
15.99
16.96
17.90
18.70
19.27
19.50
19.43
19.20
19.00
19.02
19.28
19.74
20.24
20.59
20.64
20.28
19.52
18.46
17.32
16.29
15.48
14.85
14.25
13.48
12.47
11.23
9.91
8.66
7.53
6.43
5.27
3.97
2.59
1.26
0.11
-0.82
-1.61
-2.41
-3.31
-4.34
-5.41
-6.43
-7.33
-8.17
-9.07
-10.15
-11.44
-12.82
-14.16
-15.29
-16.18
-16.94
-17.81
-19.01
-20.73
-22.96
-25.49
-27.95
-29.92
-31.06
-31.12
-30.07
-28.04
-25.32
-22.24
-19.09
-16.10
-13.40
-11.02
-8.92
-6.99
-5.13
-3.26
-1.38
0.45
2.11
3.52
4.62
5.42
5.98
6.34
6.55
6.67
6.85
7.28
8.13
9.46
11.15
12.91
14.44
15.50
16.03
16.14
16.04
15.86
15.71
15.61
15.56
15.54
15.58
15.63
15.64
15.52
15.24
14.83
14.40
14.02
13.76
13.56
13.32
12.94
12.37
11.65
10.83
9.94
8.94
7.79
6.44
4.95
3.42
1.97
0.70
-0.37
-1.29
-2.13
-2.90
-3.60
-4.16
-4.58
-4.90
-5.24
-5.78
-6.65
-7.89
-9.40
-11.02
-12.58
-14.06
-15.54
-17.25
-19.37
-22.01
-25.15
-28.60
-32.13
-35.44
-38.22
-40.15
-40.97
-40.55
-38.88
-36.17
-32.65
-28.52
-23.93
-18.96
-13.75
-8.62
-4.01
-0.33
2.18
3.65
4.47
5.15
6.04
7.25
8.56
9.67
10.37
10.62
10.61
10.61
10.89
11.59
12.71
14.08
15.48
16.73
17.73
18.49
19.04
19.36
19.32
18.76
17.63
16.10
14.58
13.53
13.28
13.81
14.77
15.68
16.14
16.04
15.53
14.90
14.34
13.83
13.18
12.20
10.85
9.24
7.67
6.39
5.57
5.11
4.80
4.38
3.62
2.46
0.91
-0.92
-2.89
-4.88
-6.74
-8.39
-9.79
-10.99
-12.16
-13.50
-15.17
-17.21
-19.43
-21.47
-22.90
-23.38
-22.76
-21.16
-18.84
-16.12
-13.28
-10.50
-7.88
-5.49
-3.38
-1.60
-0.14
1.02
1.98
2.81
3.59
4.36
5.12
5.87
6.60
7.30
8.03
8.79
9.62
10.50
11.35
12.04
12.48
12.64
12.60
12.48
12.38
12.33
12.31
12.28
12.25
12.28
12.41
12.62
12.79
12.78
12.53
12.07
11.59
11.20
10.96
10.78
10.55
10.16
9.63
9.02
8.36
7.61
6.68
5.46
3.98
2.35
0.76
-0.63
-1.76
-2.67
-3.51
-4.41
-5.49
-6.78
-8.21
-9.69
-11.11
-12.41
-13.63
-14.84
-16.20
-17.83
-19.81
-22.13
-24.69
-27.26
-29.57
-31.25
-32.02
-31.73
-30.44
-28.37
-25.89
-23.29
-20.76
-18.30
-15.85
-13.33
-10.67
-7.95
-5.24
-2.66
-0.34
1.60
3.13
4.32
5.30
6.19
7.09
7.93
8.60
9.02
9.25
9.50
10.02
10.95
12.25
13.70
15.02
16.00
16.62
16.93
17.07
17.16
17.26
17.38
17.49
17.55
17.50
17.32
17.04
16.69
16.33
15.92
15.44
14.84
14.14
13.43
12.80
12.32
11.91
11.45
10.81
9.94
8.92
7.89
6.96
6.20
5.59
5.05
4.53
3.98
3.35
2.61
1.74
0.75
-0.33
-1.41
-2.41
-3.25
-3.87
-4.28
-4.56
-4.79
-5.08
-5.52
-6.19
-7.10
-8.27
-9.67
-11.32
-13.17
-15.09
-16.95
-18.62
-20.11
-21.56
-23.21
-25.22
-27.57
-29.97
-31.97
-33.09
-33.04
-31.75
-29.42
-26.38
-23.02
-19.72
-16.73
-14.18
-12.02
-10.09
-8.17
-6.13
-3.97
-1.77
0.27
2.02
3.36
4.29
4.91
5.38
5.90
6.62
7.63
8.92
10.42
12.06
13.80
15.61
17.42
19.07
20.32
21.00
21.02
20.55
19.88
19.31
19.02
19.00
19.08
19.09
18.98
18.78
18.60
18.47
18.33
18.04
17.50
16.69
15.70
14.65
13.62
12.60
11.53
10.39
9.22
8.19
7.42
6.96
6.71
6.45
6.04
5.43
4.70
4.01
3.53
3.31
3.29
3.30
3.18
2.81
2.18
1.40
0.59
-0.16
-0.85
-1.60
-2.52
-3.72
-5.19
-6.85
-8.56
-10.16
-11.62
-12.93
-14.18
-15.52
-17.08
-18.95
-21.15
-23.57
-26.00
-28.16
-29.75
-30.54
-30.38
-29.28
-27.34
-24.75
-21.80
-18.76
-15.85
-13.17
-10.67
-8.21
-5.67
-3.02
-0.44
1.80
3.40
4.20
4.22
3.65
2.78
1.93
1.41
1.41
2.07
3.42
5.33
7.57
9.85
11.89
13.45
14.41
14.71
14.44
13.76
12.96
12.35
12.15
12.43
13.05
13.75
14.28
14.52
14.47
14.23
13.91
13.56
13.18
12.77
12.29
11.76
11.17
10.50
9.76
8.97
8.20
7.49
6.87
6.34
5.90
5.55
5.23
4.89
4.46
3.90
3.25
2.64
2.19
1.98
1.95
1.96
1.81
1.25
0.04
-2.09
-5.27
-9.42
-14.15
-18.78
-22.60
-25.12
-26.28
-26.49
-26.42
-26.67
-27.64
-29.39
-31.78
-34.51
-37.22
-39.57
-41.19
-41.88
-41.54
-40.26
-38.26
-35.80
-33.10
-30.30
-27.46
-24.53
-21.42
-17.99
-14.19
-10.10
-6.01
-2.29
0.78
3.15
5.09
6.98
9.11
11.51
13.92
15.99
17.51
18.52
19.27
20.06
21.00
22.02
22.88
23.36
23.37
23.01
22.44
21.87
21.46
21.29
21.38
21.69
22.11
22.51
22.79
22.90
22.83
22.63
22.26
21.68
20.79
19.54
17.93
16.11
14.29
12.67
11.37
10.38
9.59
8.85
8.00
6.99
5.77
4.41
3.00
1.66
0.48
-0.51
-1.29
-1.93
-2.50
-3.08
-3.75
-4.59
-5.62
-6.84
-8.17
-9.45
-10.54
-11.38
-12.10
-12.96
-14.24
-16.15
-18.62
-21.39
-24.01
-26.11
-27.38
-27.70
-27.05
-25.52
-23.23
-20.41
-17.35
-14.43
-11.91
-9.94
-8.43
-7.13
-5.75
-4.03
-1.91
0.50
2.94
5.12
6.83
8.04
8.90
9.64
10.50
11.56
12.77
13.97
15.00
15.77
16.25
16.47
16.40
16.01
15.33
14.43
13.49
12.70
12.15
11.83
11.62
11.38
11.08
10.76
10.56
10.60
10.91
11.38
11.78
11.80
11.20
9.98
8.40
6.94
6.12
6.20
7.02
8.08
8.80
8.84
8.26
7.44
6.73
6.14
5.19
3.22
-0.15
-4.63
-9.22
-12.58
-13.64
-12.14
-8.79
-4.95
-2.08
-1.12
-2.15
-4.60
-7.58
-10.41
-12.94
-15.44
-18.37
-21.98
-26.09
-30.20
-33.72
-36.21
-37.50
-37.60
-36.59
-34.56
-31.63
-28.05
-24.23
-20.61
-17.48
-14.89
-12.68
-10.63
-8.65
-6.78
-5.09
-3.53
-1.88
0.11
2.53
5.16
7.57
9.37
10.42
10.95
11.43
12.29
13.69
15.43
17.08
18.22
18.62
18.33
17.60
16.77
16.06
15.63
15.46
15.46
15.51
15.50
15.33
14.94
14.31
13.50
12.59
11.70
10.94
10.42
10.17
10.19
10.43
10.77
11.05
11.09
10.77
10.11
9.21
8.24
7.34
6.58
5.91
5.30
4.72
4.21
3.84
3.64
3.54
3.40
3.07
2.49
1.67
0.67
-0.42
-1.55
-2.72
-3.89
-5.03
-6.08
-7.03
-7.88
-8.72
-9.58
-10.51
-11.52
-12.61
-13.89
-15.51
-17.60
-20.17
-23.07
-25.92
-28.31
-29.86
-30.39
-29.88
-28.48
-26.37
-23.79
-21.00
-18.23
-15.65
-13.28
-11.02
-8.68
-6.19
-3.64
-1.26
0.72
2.20
3.26
4.05
4.74
5.49
6.48
8.06
10.59
14.31
19.01
23.97
28.16
30.63
31.00
29.55
27.07
24.45
22.34
20.92
20.11
19.67
19.41
19.27
19.23
19.29
19.40
19.49
19.48
19.27
18.73
17.78
16.35
14.51
12.41
10.29
8.34
6.63
5.10
3.63
2.13
0.65
-0.63
-1.49
-1.80
-1.60
-1.09
-0.54
-0.18
-0.10
-0.24
-0.45
-0.63
-0.74
-0.88
-1.23
-1.96
-3.16
-4.87
-7.03
-9.51
-12.18
-14.91
-17.55
-19.97
-22.15
-24.14
-26.10
-28.26
-30.77
-33.56
-36.35
-38.67
-40.08
-40.28
-39.23
-37.13
-34.36
-31.26
-28.11
-25.07
-22.18
-19.40
-16.71
-14.10
-11.54
-9.01
-6.49
-3.93
-1.36
1.14
3.43
5.39
6.96
8.16
9.08
9.82
10.44
10.97
11.37
11.63
11.78
11.86
11.90
11.89
11.79
11.60
11.33
11.06
10.87
10.78
10.74
10.67
10.48
10.15
9.72
9.26
8.85
8.54
8.35
8.27
8.35
8.59
9.00
9.56
10.23
10.96
11.68
12.28
12.66
12.71
12.40
11.75
10.89
10.00
9.20
8.54
8.02
7.56
7.09
6.55
5.93
5.21
4.34
3.27
1.95
0.36
-1.44
-3.37
-5.34
-7.26
-9.07
-10.67
-12.05
-13.25
-14.47
-15.96
-17.95
-20.56
-23.60
-26.68
-29.25
-30.84
-31.14
-30.13
-28.01
-25.11
-21.80
-18.43
-15.27
-12.51
-10.20
-8.30
-6.66
-5.13
-3.59
-2.00
-0.45
0.95
2.06
2.80
3.20
3.35
3.43
3.58
3.90
4.39
5.00
5.65
6.32
7.07
8.01
9.28
10.93
12.89
14.97
16.87
18.37
19.38
19.93
20.23
20.47
20.75
21.05
21.26
21.33
21.35
21.60
22.37
23.86
25.98
28.39
30.57
32.01
32.36
31.40
29.08
25.49
20.90
15.83
11.11
7.60
5.89
6.02
7.32
8.70
9.15
8.11
5.72
2.60
-0.57
-3.38
-5.84
-8.26
-10.88
-13.73
-16.62
-19.30
-21.71
-24.01
-26.43
-29.08
-31.83
-34.36
-36.34
-37.61
-38.32
-38.72
-39.02
-39.16
-38.91
-37.94
-36.09
-33.47
-30.46
-27.44
-24.67
-22.18
-19.79
-17.26
-14.44
-11.34
-8.13
-5.04
-2.26
0.11
2.14
3.97
5.75
7.51
9.16
10.48
11.29
11.57
11.47
11.32
11.43
11.98
12.91
13.96
14.81
15.21
15.05
14.42
13.50
12.51
11.62
10.90
10.34
9.90
9.53
9.19
8.91
8.70
8.58
8.56
8.65
8.83
9.13
9.53
10.03
10.57
11.06
11.38
11.41
11.14
10.59
9.93
9.30
8.78
8.38
7.98
7.45
6.74
5.87
4.90
3.91
2.87
1.76
0.52
-0.83
-2.17
-3.41
-4.53
-5.56
-6.62
-7.76
-8.99
-10.27
-11.60
-13.11
-14.98
-17.38
-20.34
-23.66
-26.98
-29.86
-31.97
-33.10
-33.22
-32.36
-30.60
-28.11
-25.08
-21.82
-18.61
-15.69
-13.10
-10.77
-8.56
-6.35
-4.17
-2.11
-0.25
1.45
3.15
5.01
7.15
9.51
11.89
14.11
16.06
17.77
19.38
20.97
22.60
24.24
25.75
26.98
27.76
27.94
27.47
26.41
24.98
23.45
22.04
20.80
19.56
18.13
16.37
14.35
12.32
10.52
9.04
7.77
6.41
4.65
2.40
-0.22
-2.89
-5.22
-6.96
-8.10
-8.84
-9.51
-10.47
-12.00
-14.20
-17.00
-20.12
-22.93
-24.46
-23.53
-19.09
-10.72
0.96
14.31
27.01
36.90
42.63
44.02
41.88
37.40
31.56
24.95
17.79
10.37
3.20
-2.96
-7.47
-10.11
-11.21
-11.47
-11.58
-11.95
-12.51
-12.95
-12.93
-12.30
-11.09
-9.49
-7.68
-5.84
-4.16
-2.83
-2.04
-1.84
-2.09
-2.52
-2.86
-2.99
-2.95
-2.88
-2.84
-2.75
-2.37
-1.53
-0.24
1.31
2.80
4.00
4.80
5.30
5.67
6.08
6.65
7.44
8.45
9.63
10.87
12.03
12.97
13.67
14.17
14.53
14.79
14.86
14.59
13.86
12.65
11.12
9.53
8.16
7.15
6.47
5.99
5.48
4.80
3.86
2.70
1.40
0.05
-1.30
-2.66
-4.10
-5.67
-7.34
-9.02
-10.55
-11.82
-12.78
-13.48
-14.07
-14.70
-15.47
-16.40
-17.49
-18.67
-19.91
-21.13
-22.33
-23.55
-24.89
-26.50
-28.48
-30.82
-33.40
-35.93
-38.10
-39.65
-40.34
-40.02
-38.65
-36.32
-33.24
-29.74
-26.20
-22.85
-19.75
-16.77
-13.72
-10.44
-6.95
-3.36
0.14
3.41
6.39
9.06
11.43
13.48
15.18
16.51
17.54
18.37
19.13
19.96
20.93
22.09
23.38
24.75
26.15
27.49
28.71
29.71
30.37
30.65
30.51
30.02
29.28
28.39
27.43
26.43
25.39
24.29
23.16
22.06
21.05
20.14
19.26
18.31
17.23
16.00
14.73
13.60
12.75
12.26
12.07
12.05
12.01
11.84
11.47
10.91
10.25
9.61
9.11
8.81
8.68
8.59
8.40
8.01
7.38
6.54
5.54
4.35
2.94
1.25
-0.70
-2.81
-4.95
-7.04
-9.08
-11.16
-13.38
-15.85
-18.57
-21.49
-24.51
-27.49
-30.33
-32.93
-35.16
-36.83
-37.68
-37.45
-36.03
-33.54
-30.36
-26.97
-23.76
-20.85
-18.05
-15.15
-12.06
-8.98
-6.16
-3.77
-1.62
0.70
3.52
6.77
9.96
12.46
13.90
14.38
14.45
14.74
15.64
17.14
18.96
20.72
22.17
23.18
23.77
23.99
23.93
23.75
23.57
23.47
23.37
23.18
22.89
22.66
22.78
23.49
24.79
26.32
27.64
28.31
28.22
27.52
26.58
25.77
25.40
25.60
26.37
27.50
28.57
28.96
27.97
25.13
20.39
14.19
7.35
0.73
-5.01
-9.68
-13.46
-16.73
-19.93
-23.38
-27.21
-31.45
-35.95
-40.46
-44.64
-48.18
-50.84
-52.62
-53.71
-54.44
-55.23
-56.38
-58.11
-60.49
-63.40
-66.52
-69.37
-71.29
-71.66
-70.06
-66.44
-61.13
-54.76
-48.00
-41.33
-34.89
-28.59
-22.19
-15.57
-8.81
-2.20
3.91
9.30
13.93
17.93
21.43
24.53
27.22
29.43
31.17
32.55
33.75
34.93
36.11
37.18
37.97
38.36
38.34
37.99
37.44
36.76
35.99
35.13
34.19
33.25
32.34
31.46
30.56
29.52
28.26
26.77
25.09
23.32
21.53
19.75
17.97
16.19
14.39
12.66
11.03
9.59
8.42
7.61
7.20
7.16
7.38
7.64
7.69
7.32
6.46
5.22
3.84
2.54
1.45
0.51
-0.48
-1.73
-3.35
-5.30
-7.41
-9.45
-11.25
-12.73
-13.97
-15.18
-16.61
-18.48
-20.91
-23.82
-26.94
-29.85
-32.07
-33.16
-32.87
-31.18
-28.34
-24.81
-21.08
-17.62
-14.67
-12.23
-10.15
-8.16
-6.11
-3.91
-1.62
0.66
2.86
4.94
6.86
8.61
10.15
11.47
12.64
13.74
14.89
16.14
17.49
18.83
19.98
20.78
21.05
20.76
19.95
18.80
17.57
16.52
15.79
15.43
15.32
15.28
15.15
14.86
14.41
13.86
13.32
12.81
12.32
11.76
11.03
10.03
8.79
7.43
6.15
5.16
4.51
4.16
3.89
3.51
2.89
2.06
1.11
0.16
-0.79
-1.77
-2.82
-3.93
-4.98
-5.85
-6.50
-7.02
-7.61
-8.51
-9.83
-11.57
-13.61
-15.79
-17.96
-20.10
-22.23
-24.43
-26.82
-29.44
-32.23
-34.97
-37.33
-38.95
-39.55
-39.05
-37.60
-35.49
-33.03
-30.46
-27.87
-25.26
-22.56
-19.70
-16.72
-13.69
-10.76
-8.10
-5.81
-3.94
-2.39
-1.02
0.34
1.78
3.31
4.87
6.38
7.86
9.35
10.91
12.52
14.07
15.44
16.48
17.16
17.53
17.67
17.64
17.46
17.15
16.75
16.32
15.96
15.72
15.57
15.46
15.29
15.06
14.78
14.49
14.28
14.14
14.12
14.17
14.31
14.50
14.68
14.79
14.75
14.52
14.06
13.43
12.67
11.85
10.99
10.08
9.07
7.91
6.66
5.41
4.28
3.37
2.65
1.97
1.12
-0.07
-1.64
-3.48
-5.36
-7.07
-8.49
-9.69
-10.90
-12.41
-14.46
-17.14
-20.29
-23.54
-26.43
-28.52
-29.50
-29.30
-28.04
-25.92
-23.15
-19.89
-16.32
-12.64
-9.09
-5.96
-3.42
-1.53
-0.19
0.76
1.53
2.24
2.95
3.67
4.32
4.77
4.87
4.54
3.83
2.98
2.40
2.41
3.17
4.57
6.28
7.95
9.37
10.47
11.34
12.12
12.95
13.92
15.06
16.35
17.68
18.87
19.71
20.06
19.87
19.22
18.32
17.36
16.46
15.66
14.91
14.15
13.37
12.56
11.74
10.91
9.98
8.83
7.40
5.71
3.93
2.31
1.07
0.29
-0.12
-0.37
-0.72
-1.31
-2.15
-3.14
-4.15
-5.10
-6.00
-6.90
-7.85
-8.87
-9.99
-11.23
-12.62
-14.17
-15.83
-17.53
-19.22
-20.96
-22.95
-25.35
-28.18
-31.18
-33.91
-35.88
-36.82
-36.70
-35.65
-33.77
-31.12
-27.73
-23.86
-20.05
-16.98
-15.13
-14.38
-14.00
-12.93
-10.44
-6.58
-2.18
1.54
3.72
4.34
4.21
4.36
5.48
7.44
9.48
10.84
11.34
11.52
12.29
14.19
16.94
19.52
20.78
20.19
18.20
15.94
14.54
14.45
15.22
15.90
15.71
14.50
12.83
11.50
11.02
11.27
11.63
11.40
10.28
8.49
6.64
5.28
4.63
4.46
4.37
3.98
3.26
2.47
1.96
1.96
2.39
2.92
3.20
3.06
2.61
2.20
2.18
2.66
3.48
4.23
4.50
4.12
3.23
2.14
1.18
0.41
-0.33
-1.32
-2.75
-4.52
-6.29
-7.68
-8.48
-8.80
-9.03
-9.60
-10.80
-12.64
-14.95
-17.46
-20.00
-22.41
-24.57
-26.23
-27.10
-26.94
-25.69
-23.52
-20.75
-17.68
-14.56
-11.50
-8.62
-6.05
-3.97
-2.46
-1.44
-0.63
0.30
1.62
3.32
5.13
6.70
7.74
8.22
8.35
8.49
8.92
9.75
10.86
11.97
12.80
13.22
13.24
13.01
12.67
12.32
12.04
11.85
11.85
12.12
12.65
13.31
13.83
13.97
13.58
12.76
11.75
10.82
10.13
9.72
9.51
9.39
9.30
9.20
9.02
8.67
8.07
7.26
6.36
5.56
4.94
4.49
4.05
3.45
2.60
1.53
0.41
-0.60
-1.33
-1.73
-1.86
-1.84
-1.90
-2.30
-3.22
-4.73
-6.69
-8.84
-10.92
-12.79
-14.49
-16.19
-18.05
-20.17
-22.50
-24.91
-27.22
-29.25
-30.81
-31.67
-31.63
-30.55
-28.47
-25.63
-22.40
-19.18
-16.19
-13.49
-10.99
-8.59
-6.25
-3.99
-1.92
-0.09
1.50
2.89
4.13
5.24
6.23
7.05
7.72
8.24
8.68
9.15
9.77
10.58
11.60
12.69
13.66
14.37
14.76
14.91
14.94
14.97
15.05
15.14
15.19
15.16
15.09
15.07
15.16
15.40
15.72
15.98
16.04
15.78
15.15
14.17
12.94
11.57
10.20
8.89
7.68
6.60
5.68
4.99
4.54
4.26
3.98
3.53
2.76
1.70
0.50
-0.63
-1.58
-2.35
-3.07
-3.88
-4.79
-5.74
-6.55
-7.14
-7.56
-7.97
-8.61
-9.66
-11.21
-13.17
-15.33
-17.39
-19.09
-20.28
-21.08
-21.77
-22.75
-24.30
-26.42
-28.82
-31.06
-32.74
-33.64
-33.74
-33.14
-31.93
-30.12
-27.69
-24.73
-21.38
-17.86
-14.36
-10.97
-7.70
-4.51
-1.40
1.60
4.43
7.03
9.39
11.48
13.27
14.71
15.77
16.48
16.98
17.47
18.17
19.15
20.38
21.67
22.85
23.74
24.33
24.66
24.87
25.07
25.31
25.58
25.81
25.92
25.84
25.57
25.13
24.59
24.00
23.38
22.66
21.76
20.64
19.32
17.89
16.47
15.19
14.13
13.31
12.68
12.12
11.46
10.55
9.28
7.65
5.79
3.90
2.17
0.67
-0.66
-2.00
-3.55
-5.43
-7.64
-10.03
-12.36
-14.31
-15.56
-15.91
-15.38
-14.23
-12.94
-12.04
-11.90
-12.58
-13.85
-15.32
-16.68
-17.89
-19.21
-21.07
-23.84
-27.58
-31.95
-36.35
-40.05
-42.53
-43.58
-43.29
-41.91
-39.65
-36.66
-32.95
-28.61
-23.80
-18.83
-14.06
-9.79
-6.12
-3.00
-0.30
2.11
4.34
6.45
8.49
10.48
12.35
14.00
15.29
16.16
16.79
17.43
18.40
19.81
21.50
23.12
24.32
24.88
24.81
24.30
23.51
22.55
21.49
20.41
19.49
18.94
18.87
19.17
19.57
19.73
19.42
18.67
17.71
16.83
16.20
15.77
15.31
14.52
13.23
11.47
9.47
7.56
5.99
4.82
3.95
3.19
2.35
1.38
0.39
-0.48
-1.11
-1.50
-1.80
-2.22
-2.91
-3.92
-5.20
-6.60
-8.03
-9.42
-10.77
-12.11
-13.52
-15.04
-16.75
-18.70
-20.93
-23.32
-25.62
-27.47
-28.48
-28.37
-27.09
-24.80
-21.86
-18.70
-15.70
-13.03
-10.71
-8.61
-6.60
-4.60
-2.71
-1.08
0.12
0.86
1.30
1.68
2.28
3.25
4.61
6.23
7.96
9.66
11.24
12.64
13.83
14.77
15.44
15.82
15.95
15.88
15.64
15.28
14.81
14.26
13.67
13.04
12.38
11.66
10.83
9.89
8.83
7.68
6.47
5.15
3.70
2.09
0.32
-1.55
-3.42
-5.25
-7.06
-8.91
-10.85
-12.90
-15.07
-17.32
-19.71
-22.28
-25.08
-28.09
-31.13
-33.86
-35.89
-36.83
-36.48
-34.87
-32.24
-29.01
-25.57
-22.18
-18.95
-15.82
-12.68
-9.48
-6.29
-3.25
-0.52
1.80
3.69
5.21
6.42
7.36
8.06
8.55
8.91
9.28
9.81
10.62
11.70
12.94
14.16
15.14
15.75
15.94
15.74
15.20
14.40
13.43
12.36
11.29
10.33
