1692521701.00
64.000000
-0.00
-0.00
-0.00
-0.00
-0.00
-0.00
-0.00
-0.00
-0.00
-0.00
0.00
0.01
0.01
-0.00
-0.03
-0.05
-0.05
0.00
0.13
0.36
0.66
1.01
1.37
1.72
2.04
2.39
2.79
3.27
3.86
4.50
5.11
5.64
6.03
6.33
6.61
7.01
7.58
8.45
9.49
10.57
11.53
12.30
12.95
13.68
14.76
16.36
18.68
21.49
24.42
27.11
29.37
31.34
33.43
36.22
40.09
45.41
51.66
58.12
64.02
68.96
73.14
77.35
82.60
89.62
98.93
109.70
120.69
130.62
138.79
145.48
151.84
159.84
168.57
180.26
195.02
212.21
229.95
245.10
253.65
251.70
236.76
208.56
169.60
123.34
73.39
22.09
-29.97
-83.31
-138.24
-193.46
-245.74
-290.14
-322.18
-339.17
-341.29
-331.42
-313.93
-293.02
-271.39
-249.99
-228.55
-207.07
-186.17
-167.05
-150.79
-137.58
-126.42
-115.63
-103.68
-89.88
-74.83
-60.01
-47.03
-36.83
-29.29
-23.27
-17.14
-9.54
0.07
11.13
22.24
31.69
38.09
40.84
40.26
37.42
33.70
30.30
27.88
26.54
25.99
25.90
26.13
26.84
28.35
31.01
34.99
40.41
47.21
55.09
63.08
69.38
71.55
67.31
55.62
37.50
15.99
-4.78
-21.13
-31.04
-34.61
-33.50
-29.88
-25.45
-21.26
-17.99
-16.43
-17.66
-22.69
-31.75
-43.87
-56.97
-68.54
-76.57
-80.09
-79.29
-75.05
-68.43
-60.25
-51.16
-41.76
-32.70
-24.64
-18.06
-13.06
-9.40
-6.67
-4.55
-2.88
-1.65
-0.84
-0.34
0.04
0.50
1.14
1.93
2.76
3.50
4.00
4.18
4.05
3.69
3.22
2.72
2.22
1.65
0.90
-0.08
-1.21
-2.29
-3.01
-3.09
-2.34
-0.76
1.45
3.95
6.37
8.42
9.92
10.84
11.27
11.33
11.12
10.73
10.18
9.48
8.66
7.79
7.00
6.45
6.22
6.30
6.50
6.56
6.27
5.56
4.53
3.37
2.27
1.26
0.26
-0.85
-2.15
-3.59
-5.04
-6.32
-7.31
-8.00
-8.39
-8.55
-8.48
-8.21
-7.80
-7.40
-7.19
-7.31
-7.73
-8.21
-8.38
-7.96
-6.87
-5.34
-3.86
-2.88
-2.65
-3.07
-3.83
-4.52
-4.86
-4.80
-4.49
-4.12
-3.83
-3.71
-3.75
-3.87
-3.93
-3.75
-3.17
-2.10
-0.61
1.15
2.98
4.78
6.51
8.22
9.93
11.57
13.02
14.15
14.92
15.39
15.65
15.80
15.80
15.60
15.13
14.44
13.67
12.95
12.39
12.00
11.70
11.41
11.05
10.60
10.07
9.46
8.80
8.10
7.35
6.60
5.90
5.33
4.92
4.66
4.48
4.27
3.93
3.42
2.76
2.05
1.43
0.99
0.79
0.81
0.96
1.13
1.21
1.12
0.87
0.52
0.21
0.10
0.29
0.75
1.32
1.78
1.96
1.80
1.39
0.87
0.36
-0.07
-0.39
-0.61
-0.68
-0.57
-0.28
0.10
0.46
0.66
0.64
0.44
0.17
-0.03
-0.06
0.08
0.32
0.58
0.80
0.96
1.12
1.32
1.57
1.82
1.99
2.01
1.91
1.76
1.67
1.70
1.82
1.94
1.96
1.86
1.70
1.56
1.50
1.57
1.72
1.90
2.03
2.04
1.91
1.67
1.39
1.14
0.96
0.87
0.83
0.81
0.84
0.95
1.22
1.64
2.17
2.70
3.14
3.43
3.59
3.60
3.47
3.17
2.72
2.17
1.59
1.05
0.56
0.07
-0.47
-1.09
-1.78
-2.46
-3.01
-3.38
-3.54
-3.54
-3.44
-3.29
-3.12
-2.90
-2.56
-2.05
-1.39
-0.65
0.04
0.56
0.84
0.91
0.87
0.82
0.84
0.93
1.06
1.15
1.18
1.15
1.09
1.04
1.02
1.02
1.02
1.01
0.98
0.97
1.03
1.19
1.42
1.71
1.99
2.24
2.42
2.53
2.53
2.43
2.18
1.83
1.45
1.14
1.01
1.05
1.19
1.32
1.31
1.13
0.80
0.38
-0.09
-0.58
-1.09
-1.58
-2.00
-2.27
-2.32
-2.13
-1.75
-1.28
-0.80
-0.43
-0.24
-0.27
-0.52
-0.90
-1.26
-1.42
-1.33
-1.01
-0.61
-0.29
-0.15
-0.18
-0.30
-0.40
-0.46
-0.54
-0.74
-1.13
-1.70
-2.35
-2.96
-3.47
-3.86
-4.23
-4.65
-5.15
-5.73
-6.34
-6.96
-7.63
-8.39
-9.28
-10.24
-11.17
-11.94
-12.52
-12.98
-13.49
-14.26
-15.36
-16.73
-18.16
-19.39
-20.28
-20.85
-21.31
-21.96
-23.04
-24.63
-26.63
-28.83
-31.03
-33.06
-34.74
-35.82
-36.05
-35.31
-33.79
-32.03
-30.81
-30.70
-31.72
-33.23
-34.10
-33.21
-30.00
-24.72
-18.29
-11.92
-6.61
-2.83
-0.53
0.74
1.62
2.79
4.92
8.63
14.44
22.50
32.38
43.07
53.13
61.10
66.01
67.63
66.50
63.59
59.91
56.14
52.56
49.20
46.03
43.12
40.65
38.76
37.43
36.43
35.45
34.24
32.72
31.06
29.54
28.43
27.81
27.53
27.29
26.80
25.91
24.58
22.82
20.55
17.61
13.92
9.48
4.44
-1.19
-7.72
-15.78
-26.09
-38.89
-53.66
-68.97
-82.89
-93.52
-99.55
-100.48
-96.62
-88.82
-78.22
-65.98
-53.02
-39.77
-26.07
-11.32
5.16
23.55
43.23
62.74
80.24
94.20
103.88
109.65
112.65
114.33
115.89
117.89
120.25
122.42
123.66
123.33
120.95
116.32
109.51
100.95
91.56
82.69
75.92
72.22
71.25
71.00
68.33
60.29
45.51
25.02
1.81
-20.47
-39.06
-53.00
-62.84
-69.77
-74.55
-77.14
-77.05
-74.10
-68.79
-62.25
-55.61
-49.39
-43.40
-36.97
-29.55
-21.25
-13.09
-6.76
-3.94
-5.52
-11.09
-18.98
-26.84
-32.53
-34.94
-34.19
-31.36
-27.83
-24.59
-22.03
-19.93
-17.84
-15.40
-12.45
-9.05
-5.36
-1.61
1.96
5.11
7.61
9.43
10.84
12.41
14.91
18.95
24.73
31.92
39.86
47.71
54.59
59.68
62.20
61.64
58.09
52.69
47.32
43.77
42.43
41.59
37.90
28.06
10.82
-11.89
-35.47
-54.71
-66.11
-69.41
-67.36
-64.10
-63.20
-66.24
-72.67
-80.65
-88.27
-94.45
-99.14
-102.94
-106.44
-109.71
-112.18
-113.00
-111.72
-108.79
-105.65
-104.16
-105.79
-110.88
-118.50
-126.90
-134.33
-139.89
-143.78
-147.11
-151.26
-157.17
-165.04
-174.52
-185.07
-196.29
-207.70
-218.20
-225.71
-227.25
-219.74
-201.13
-171.20
-131.49
-84.50
-32.76
21.47
75.87
127.40
172.12
206.01
226.44
233.35
229.49
219.24
206.88
195.11
184.59
174.71
164.58
154.04
143.67
134.30
126.38
119.66
113.34
106.62
99.08
90.87
82.56
74.81
68.03
62.24
57.16
52.41
47.69
42.93
38.24
33.88
30.06
26.89
24.34
22.20
20.25
18.28
16.20
14.10
12.14
10.50
9.27
8.41
7.80
7.34
6.98
6.76
6.67
6.70
6.71
6.60
6.35
6.10
6.07
6.46
7.32
8.50
9.72
10.69
11.27
11.46
11.33
10.92
10.19
9.01
7.34
5.24
3.02
1.15
0.17
0.49
2.24
5.22
8.85
12.39
15.17
16.87
17.59
17.85
18.30
19.48
21.61
24.68
28.49
32.61
36.28
38.38
37.67
33.32
25.52
15.70
6.20
-0.65
-3.50
-2.61
0.43
3.57
5.25
5.09
3.78
2.50
2.28
3.69
6.80
11.43
17.33
24.12
31.27
38.10
43.96
48.48
51.90
54.96
58.63
63.68
70.41
78.61
87.56
96.14
102.78
105.63
103.04
94.19
79.60
60.99
40.30
18.36
-6.05
-35.93
-74.34
-122.14
-176.47
-231.02
-278.26
-312.47
-332.13
-340.03
-341.19
-339.75
-336.63
-329.18
-312.95
-284.44
-242.97
-190.84
-131.83
-69.45
-5.95
57.14
117.75
172.51
217.22
248.42
265.15
269.67
266.70
261.49
257.84
257.06
258.22
259.35
258.93
256.80
254.14
252.47
252.47
253.02
251.15
242.94
225.02
195.69
155.27
105.68
49.73
-9.26
-67.50
-120.62
-164.06
-194.15
-209.37
-211.13
-203.33
-191.02
-178.55
-168.39
-161.01
-155.63
-151.23
-147.24
-143.63
-140.56
-138.08
-136.01
-134.11
-132.23
-130.42
-128.94
-128.04
-127.82
-128.13
-128.69
-129.18
-129.59
-130.20
-131.51
-134.04
-137.97
-143.18
-149.46
-156.71
-164.99
-174.04
-182.65
-188.26
-187.28
-176.13
-152.40
-115.68
-67.57
-11.10
49.89
111.17
168.25
216.70
252.90
275.03
283.86
282.59
275.79
267.76
261.15
256.59
253.30
250.22
246.94
244.14
243.23
245.35
250.50
256.77
260.53
257.31
243.17
215.89
175.50
124.04
64.99
2.76
-57.75
-111.52
-154.09
-182.61
-196.77
-198.96
-193.42
-184.54
-175.36
-166.87
-158.68
-150.20
-141.60
-133.98
-128.63
-126.09
-125.70
-126.08
-125.94
-124.82
-123.06
-121.39
-120.16
-119.03
-117.20
-114.04
-109.58
-104.60
-100.30
-97.80
-97.91
-101.15
-107.91
-118.20
-131.14
-144.27
-153.47
-153.60
-140.00
-110.20
-65.25
-9.81
48.87
102.95
146.11
175.06
190.03
194.00
191.31
186.16
181.56
178.98
178.74
180.60
184.23
189.33
195.45
201.71
206.93
210.00
210.47
208.96
207.11
207.28
211.39
219.89
231.04
240.97
244.67
237.63
217.29
183.62
138.82
86.32
29.89
-26.75
-79.88
-125.74
-160.94
-183.32
-192.72
-191.27
-182.76
-171.44
-160.77
-152.79
-148.08
-146.29
-146.64
-148.21
-150.19
-151.90
-152.95
-153.28
-153.03
-152.36
-151.32
-149.85
-147.95
-145.86
-144.10
-143.30
-143.92
-146.00
-149.13
-152.55
-155.47
-157.39
-158.32
-158.93
-160.32
-163.55
-168.87
-175.04
-179.16
-177.20
-165.12
-140.09
-101.51
-51.38
5.99
64.73
118.54
161.93
191.46
206.52
209.43
204.52
196.56
189.21
184.03
180.70
177.99
174.93
171.45
168.14
165.58
163.79
162.12
159.82
156.49
152.43
148.46
145.37
143.35
141.85
139.85
136.37
131.02
124.21
117.02
110.81
106.87
106.20
109.44
116.58
126.58
137.03
144.19
143.64
131.36
105.01
64.83
13.97
-42.07
-96.72
-143.77
-178.72
-199.66
-207.31
-204.57
-195.41
-183.84
-172.93
-164.44
-158.82
-155.52
-153.48
-151.48
-148.46
-143.89
-137.90
-131.40
-125.84
-122.81
-123.39
-127.37
-132.55
-134.78
-129.02
-111.28
-80.80
-40.98
1.28
38.15
63.84
76.68
79.16
76.07
71.96
69.30
68.15
67.22
65.36
62.44
59.30
57.05
56.26
56.73
57.61
57.91
56.92
54.56
51.34
48.21
46.21
46.10
48.03
51.42
55.19
58.22
59.78
59.90
59.24
58.71
59.12
60.89
64.17
69.11
75.87
84.08
92.15
96.97
94.59
81.84
58.08
26.10
-8.56
-39.73
-62.82
-76.36
-81.75
-81.85
-79.33
-75.64
-71.17
-66.03
-60.76
-56.37
-53.82
-53.38
-54.34
-55.29
-54.85
-52.21
-47.50
-41.74
-36.24
-32.10
-29.75
-28.80
-28.33
-27.25
-24.89
-21.20
-16.78
-12.53
-9.23
-7.26
-6.47
-6.34
-6.27
-5.83
-4.87
-3.52
-2.01
-0.55
0.75
1.85
2.74
3.37
3.61
3.33
2.42
0.90
-1.09
-3.24
-5.18
-6.59
-7.27
-7.20
-6.56
-5.60
-4.62
-3.79
-3.20
-2.83
-2.64
-2.56
-2.53
-2.47
-2.29
-1.90
-1.28
-0.48
0.37
1.09
1.53
1.64
1.45
1.09
0.70
0.41
0.24
0.20
0.23
0.29
0.35
0.39
0.34
0.11
-0.46
-1.42
-2.74
-4.19
-5.50
-6.41
-6.77
-6.64
-6.16
-5.55
-4.98
-4.55
-4.28
-4.18
-4.21
-4.33
-4.50
-4.68
-4.79
-4.76
-4.49
-3.94
-3.14
-2.18
-1.18
-0.22
0.70
1.62
2.61
3.65
4.62
5.33
5.62
5.44
4.84
4.02
3.18
2.49
2.02
1.76
1.63
1.58
1.59
1.65
1.75
1.79
1.66
1.26
0.61
-0.13
-0.70
-0.85
-0.47
0.34
1.30
2.08
2.43
2.32
1.88
1.36
0.95
0.71
0.57
0.42
0.19
-0.13
-0.45
-0.74
-1.01
-1.35
-1.85
-2.51
-3.24
-3.88
-4.29
-4.44
-4.41
-4.34
-4.36
-4.47
-4.62
-4.72
-4.69
-4.55
-4.36
-4.25
-4.26
-4.42
-4.70
-5.06
-5.46
-5.84
-6.07
-5.99
-5.37
-4.05
-1.99
0.66
3.60
6.42
8.76
10.32
10.99
10.81
9.97
8.75
7.42
6.19
5.16
4.31
3.62
3.05
2.61
2.30
2.12
2.02
1.93
1.78
1.55
1.32
1.19
1.28
1.63
2.19
2.84
3.45
3.90
4.14
4.19
4.12
3.95
3.69
3.30
2.73
2.01
1.20
0.41
-0.29
-0.90
-1.46
-1.99
-2.46
-2.79
-2.94
-2.97
-3.00
-3.23
-3.72
-4.38
-5.00
-5.36
-5.39
-5.16
-4.87
-4.70
-4.68
-4.69
-4.55
-4.13
-3.44
-2.61
-1.82
-1.20
-0.78
-0.47
-0.18
0.13
0.45
0.70
0.84
0.91
1.02
1.29
1.77
2.45
3.20
3.86
4.30
4.45
4.29
3.84
3.17
2.34
1.49
0.78
0.37
0.34
0.61
1.02
1.36
1.45
1.28
0.94
0.59
0.39
0.47
0.85
1.49
2.28
3.06
3.65
3.92
3.83
3.45
2.87
2.18
1.44
0.63
-0.21
-1.00
-1.60
-1.88
-1.82
-1.53
-1.18
-0.96
-0.99
-1.30
-1.86
-2.60
-3.43
-4.27
-4.99
-5.48
-5.68
-5.60
-5.32
-4.99
-4.71
-4.51
-4.34
-4.07
-3.60
-2.91
-2.08
-1.27
-0.64
-0.23
-0.02
0.13
0.32
0.60
0.97
1.37
1.76
2.13
2.48
2.79
3.01
3.10
3.02
2.80
2.48
2.14
1.82
1.57
1.42
1.40
1.47
1.58
1.62
1.52
1.25
0.86
0.44
0.12
-0.02
0.10
0.50
1.13
1.90
2.66
3.25
3.52
3.38
2.84
1.97
0.93
-0.11
-1.00
-1.60
-1.84
-1.74
-1.43
-1.09
-0.93
-1.06
-1.49
-2.12
-2.80
-3.37
-3.72
-3.87
-3.88
-3.83
-3.81
-3.84
-3.96
-4.20
-4.55
-4.98
-5.38
-5.61
-5.53
-5.15
-4.59
-4.06
-3.79
-3.89
-4.27
-4.68
-4.78
-4.26
-2.96
-0.88
1.75
4.55
7.10
8.99
9.99
10.06
9.40
8.25
6.92
5.63
4.49
3.58
2.94
2.56
2.41
2.38
2.34
2.15
1.73
1.11
0.42
-0.16
-0.48
-0.42
0.02
0.79
1.74
2.66
3.31
3.53
3.24
2.54
1.63
0.72
0.00
-0.46
-0.71
-0.82
-0.83
-0.79
-0.68
-0.52
-0.39
-0.34
-0.46
-0.74
-1.16
-1.64
-2.09
-2.47
-2.75
-2.92
-2.99
-2.99
-2.95
-2.89
-2.83
-2.74
-2.62
-2.42
-2.17
-1.86
-1.51
-1.11
-0.64
-0.11
0.41
0.82
1.00
0.89
0.58
0.25
0.12
0.36
0.97
1.79
2.56
3.05
3.20
3.07
2.80
2.53
2.27
1.98
1.58
1.10
0.62
0.28
0.17
0.26
0.45
0.64
0.75
0.73
0.58
0.29
-0.11
-0.54
-0.83
-0.83
-0.44
0.31
1.23
2.13
2.83
3.23
3.36
3.24
2.96
2.54
2.05
1.54
1.09
0.74
0.53
0.44
0.42
0.36
0.17
-0.23
-0.87
-1.67
-2.55
-3.41
-4.19
-4.84
-5.38
-5.80
-6.07
-6.19
-6.19
-6.12
-6.01
-5.90
-5.79
-5.66
-5.52
-5.39
-5.25
-5.06
-4.70
-4.01
-2.86
-1.25
0.70
2.74
4.58
6.00
6.89
7.28
7.26
6.89
6.21
5.20
3.89
2.41
0.98
-0.17
-0.89
-1.18
-1.18
-1.11
-1.15
-1.38
-1.80
-2.33
-2.94
-3.58
-4.18
-4.55
-4.42
-3.52
-1.74
0.75
3.51
5.97
7.64
8.30
8.03
7.10
5.88
4.61
3.41
2.33
1.44
0.82
0.56
0.65
0.96
1.26
1.31
0.96
0.28
-0.54
-1.26
-1.73
-1.94
-2.02
-2.14
-2.42
-2.85
-3.31
-3.64
-3.73
-3.58
-3.26
-2.88
-2.53
-2.25
-2.02
-1.80
-1.56
-1.28
-0.99
-0.69
-0.41
-0.09
0.29
0.82
1.49
2.29
3.12
3.89
4.49
4.87
5.00
4.86
4.43
3.71
2.72
1.56
0.42
-0.51
-1.08
-1.21
-0.98
-0.54
-0.05
0.34
0.54
0.50
0.23
-0.22
-0.73
-1.10
-1.11
-0.61
0.38
1.65
2.86
3.67
3.90
3.56
2.85
2.04
1.31
0.73
0.28
-0.08
-0.38
-0.59
-0.68
-0.68
-0.65
-0.70
-0.87
-1.18
-1.59
-2.03
-2.45
-2.81
-3.07
-3.22
-3.28
-3.28
-3.28
-3.34
-3.47
-3.64
-3.78
-3.87
-3.91
-3.96
-4.04
-4.12
-4.08
-3.74
-3.05
-2.04
-0.92
0.06
0.73
1.13
1.41
1.81
2.43
3.22
3.95
4.36
4.33
3.90
3.29
2.76
2.49
2.56
2.94
3.57
4.35
5.16
5.84
6.20
6.13
5.57
4.61
3.37
2.05
0.83
-0.14
-0.70
-0.81
-0.49
0.09
0.68
1.04
1.05
0.75
0.28
-0.21
-0.63
-0.97
-1.27
-1.52
-1.72
-1.80
-1.77
-1.69
-1.68
-1.84
-2.20
-2.70
-3.21
-3.61
-3.82
-3.84
-3.75
-3.68
-3.76
-3.99
-4.30
-4.55
-4.60
-4.41
-4.07
-3.70
-3.43
-3.29
-3.23
-3.14
-2.94
-2.62
-2.22
-1.78
-1.24
-0.46
0.67
2.19
3.93
5.59
6.83
7.41
7.26
6.53
5.46
4.28
3.17
2.23
1.48
0.92
0.53
0.26
0.01
-0.28
-0.65
-1.03
-1.30
-1.34
-1.08
-0.53
0.19
0.99
1.76
2.47
3.06
3.50
3.75
3.77
3.59
3.30
3.00
2.77
2.62
2.49
2.28
1.96
1.54
1.08
0.67
0.32
-0.01
-0.40
-0.90
-1.49
-2.13
-2.71
-3.15
-3.42
-3.54
-3.58
-3.59
-3.62
-3.67
-3.69
-3.64
-3.49
-3.28
-3.09
-3.01
-3.06
-3.19
-3.26
-3.15
-2.76
-2.12
-1.34
-0.53
0.22
0.92
1.58
2.21
2.80
3.26
3.50
3.48
3.21
2.77
2.29
1.88
1.61
1.47
1.39
1.31
1.18
1.02
0.86
0.70
0.53
0.29
-0.05
-0.45
-0.78
-0.88
-0.68
-0.19
0.42
0.92
1.15
1.01
0.56
-0.09
-0.81
-1.54
-2.25
-2.95
-3.56
-4.00
-4.17
-4.04
-3.74
-3.50
-3.57
-4.09
-5.02
-6.13
-7.15
-7.88
-8.25
-8.40
-8.50
-8.78
-9.39
-10.38
-11.70
-13.17
-14.57
-15.69
-16.39
-16.72
-16.87
-17.10
-17.69
-18.78
-20.26
-21.67
-22.18
-20.78
-16.61
-9.37
0.40
11.35
21.75
30.07
35.44
37.86
37.99
36.71
34.77
32.59
30.38
28.21
26.19
24.35
22.59
20.69
18.37
15.44
11.96
8.24
4.74
1.88
-0.05
-0.98
-1.08
-0.60
0.17
0.95
1.58
1.96
2.10
2.05
1.86
1.58
1.25
0.91
0.64
0.52
0.57
0.66
0.52
-0.18
-1.70
-4.06
-7.03
-10.21
-13.18
-15.66
-17.55
-18.86
-19.65
-19.92
-19.64
-18.85
-17.66
-16.27
-14.92
-13.73
-12.71
-11.79
-10.87
-9.94
-9.11
-8.54
-8.42
-8.82
-9.66
-10.72
-11.70
-12.25
-12.09
-11.12
-9.50
-7.67
-6.26
-5.85
-6.70
-8.62
-10.96
-13.00
-14.24
-14.74
-15.10
-16.21
-18.75
-22.82
-27.85
-32.75
-36.37
-37.99
-37.62
-36.06
-34.78
-35.53
-39.55
-46.77
-55.20
-61.12
-59.89
-47.44
-21.83
15.91
61.94
110.70
156.36
193.98
220.06
232.80
232.20
220.03
199.39
173.80
146.09
117.69
88.84
59.62
31.01
5.18
-15.34
-29.02
-36.25
-39.30
-41.09
-43.62
-47.18
-50.65
-52.66
-52.72
-51.42
-50.00
-49.45
-49.88
-50.54
-50.30
-48.32
-44.55
-39.75
-35.09
-31.62
-29.82
-29.40
-29.47
-28.99
-27.22
-24.05
-20.03
-16.01
-12.82
-10.88
-10.05
-9.76
-9.35
-8.39
-6.82
-4.95
-3.21
-1.94
-1.27
-1.14
-1.36
-1.79
-2.33
-2.92
-3.51
-3.99
-4.25
-4.24
-3.96
-3.49
-2.95
-2.46
-2.15
-2.09
-2.33
-2.80
-3.36
-3.78
-3.86
-3.49
-2.71
-1.72
-0.84
-0.40
-0.70
-1.83
-3.66
-5.86
-7.92
-9.38
-10.01
-9.94
-9.65
-9.74
-10.67
-12.45
-14.62
-16.46
-17.33
-17.10
-16.26
-15.77
-16.59
-19.19
-23.25
-27.71
-31.20
-32.69
-32.01
-30.00
-28.05
-27.53
-29.20
-33.00
-38.39
-44.55
-50.30
-53.71
-51.84
-41.29
-19.64
12.88
52.63
93.37
128.71
154.64
170.71
179.00
181.58
178.37
166.95
144.62
111.16
70.43
29.51
-4.22
-26.28
-36.67
-38.99
-38.02
-37.18
-37.40
-37.65
-36.48
-33.44
-29.41
-26.00
-24.48
-25.08
-26.90
-28.42
-28.25
-25.80
-21.50
-16.57
-12.44
-10.19
-10.07
-11.47
-13.22
-14.19
-13.74
-12.00
-9.71
-7.82
-7.00
-7.36
-8.49
-9.72
-10.51
-10.72
-10.54
-10.32
-10.35
-10.71
-11.27
-11.82
-12.24
-12.46
-12.52
-12.45
-12.27
-11.98
-11.59
-11.20
-10.93
-10.92
-11.24
-11.84
-12.45
-12.58
-11.64
-9.14
-4.94
0.58
6.58
11.99
15.89
17.86
18.01
16.90
15.20
13.42
11.86
10.56
9.46
8.53
7.75
7.13
6.65
6.31
6.06
5.87
5.70
5.54
5.40
5.38
5.57
6.03
6.69
7.37
7.82
7.87
7.52
6.96
6.45
6.20
6.19
6.28
6.23
5.96
5.52
5.12
4.87
4.73
4.46
3.79
2.57
0.95
-0.70
-1.97
-2.63
-2.73
-2.64
-2.76
-3.40
-4.55
-6.00
-7.41
-8.51
-9.22
-9.64
-9.91
-10.08
-10.11
-9.88
-9.34
-8.60
-7.87
-7.39
-7.28
-7.43
-7.60
-7.49
-6.87
-5.72
-4.19
-2.56
-1.08
0.02
0.70
1.02
1.15
1.29
1.56
2.00
2.55
3.07
3.49
3.77
3.92
3.94
3.81
3.45
2.83
1.97
1.01
0.14
-0.48
-0.76
-0.73
-0.53
-0.33
-0.24
-0.29
-0.36
-0.32
-0.04
0.55
1.41
2.39
3.29
3.93
4.14
3.86
3.16
2.17
1.12
0.26
-0.27
-0.41
-0.19
0.22
0.67
0.98
1.05
0.86
0.46
-0.07
-0.60
-1.10
-1.54
-1.97
-2.40
-2.84
-3.23
-3.52
-3.67
-3.69
-3.65
-3.57
-3.49
-3.38
-3.23
-3.02
-2.79
-2.58
-2.39
-2.18
-1.90
-1.52
-1.05
-0.56
-0.15
0.14
0.30
0.39
0.48
0.66
0.96
1.40
1.97
2.61
3.22
3.69
3.90
3.79
3.41
2.84
2.21
1.61
1.06
0.55
0.07
-0.38
-0.76
-0.98
-1.02
-0.85
-0.52
-0.05
0.51
1.14
1.79
2.39
2.85
3.08
3.10
2.95
2.77
2.66
2.66
2.68
2.60
2.34
1.89
1.37
0.93
0.63
0.47
0.29
-0.08
-0.79
-1.87
-3.23
-4.74
-6.25
-7.66
-8.92
-9.98
-10.76
-11.16
-11.10
-10.61
-9.89
-9.22
-8.90
-9.10
-9.78
-10.75
-11.67
-12.17
-11.84
-10.33
-7.51
-3.51
1.14
5.70
9.39
11.76
12.81
12.89
12.51
12.05
11.62
11.08
10.29
9.19
7.91
6.69
5.73
5.07
4.62
4.23
3.78
3.26
2.71
2.23
1.83
1.46
1.08
0.68
0.40
0.38
0.76
1.57
2.65
3.78
4.69
5.21
5.23
4.80
4.03
3.10
2.20
1.49
1.06
0.92
0.97
1.10
1.14
1.00
0.57
-0.17
-1.23
-2.52
-3.87
-5.08
-5.95
-6.40
-6.46
-6.23
-5.85
-5.46
-5.20
-5.16
-5.44
-6.01
-6.76
-7.47
-7.86
-7.68
-6.84
-5.40
-3.60
-1.76
-0.19
0.95
1.66
2.08
2.46
3.05
3.97
5.20
6.53
7.67
8.37
8.48
8.03
7.16
6.07
4.92
3.82
2.79
1.88
1.10
0.48
0.05
-0.21
-0.35
-0.45
-0.59
-0.80
-1.07
-1.32
-1.45
-1.37
-1.07
-0.58
-0.03
0.41
0.63
0.56
0.25
-0.18
-0.61
-0.93
-1.10
-1.12
-1.02
-0.84
-0.62
-0.41
-0.26
-0.24
-0.43
-0.81
-1.36
-1.97
-2.56
-3.07
-3.50
-3.85
-4.13
-4.31
-4.35
-4.21
-3.92
-3.53
-3.17
-2.93
-2.85
-2.93
-3.05
-3.07
-2.84
-2.22
-1.19
0.18
1.72
3.19
4.41
5.25
5.69
5.77
5.60
5.24
4.78
4.29
3.87
3.62
3.59
3.75
3.97
4.08
3.91
3.38
2.53
1.47
0.39
-0.57
-1.32
-1.85
-2.19
-2.40
-2.52
-2.53
-2.39
-2.06
-1.52
-0.81
-0.01
0.75
1.35
1.74
1.90
1.84
1.59
1.17
0.61
-0.03
-0.63
-1.05
-1.20
-1.05
-0.71
-0.35
-0.11
-0.10
-0.31
-0.70
-1.21
-1.82
-2.47
-3.09
-3.58
-3.84
-3.85
-3.67
-3.41
-3.19
-3.07
-3.05
-3.10
-3.17
-3.23
-3.24
-3.13
-2.83
-2.30
-1.59
-0.78
0.02
0.80
1.61
2.53
3.58
4.67
5.60
6.20
6.38
6.18
5.74
5.20
4.63
4.04
3.39
2.65
1.87
1.13
0.53
0.14
-0.04
-0.05
0.03
0.07
-0.01
-0.24
-0.57
-0.83
-0.83
-0.42
0.40
1.49
2.57
3.32
3.53
3.12
2.22
1.05
-0.11
-1.02
-1.55
-1.71
-1.61
-1.38
-1.19
-1.12
-1.18
-1.33
-1.52
-1.73
-1.96
-2.28
-2.69
-3.17
-3.68
-4.13
-4.47
-4.67
-4.73
-4.69
-4.59
-4.47
-4.36
-4.24
-4.08
-3.84
-3.55
-3.27
-3.09
-3.05
-3.11
-3.11
-2.86
-2.17
-1.00
0.59
2.43
4.31
6.03
7.42
8.35
8.74
8.60
8.08
7.38
6.71
6.16
5.69
5.13
4.35
3.33
2.22
1.26
0.63
0.36
0.24
0.02
-0.51
-1.37
-2.34
-3.11
-3.40
-3.07
-2.16
-0.88
0.49
1.70
2.54
2.88
2.72
2.17
1.40
0.63
0.06
-0.23
-0.26
-0.14
-0.02
0.03
-0.02
-0.13
-0.28
-0.48
-0.77
-1.18
-1.72
-2.34
-2.95
-3.49
-3.91
-4.21
-4.41
-4.53
-4.61
-4.66
-4.68
-4.65
-4.51
-4.21
-3.75
-3.18
-2.60
-2.08
-1.64
-1.22
-0.72
-0.06
0.80
1.81
2.90
3.94
4.87
5.63
6.16
6.39
6.28
5.78
4.90
3.74
2.44
1.16
0.08
-0.70
-1.11
-1.17
-1.01
-0.77
-0.61
-0.64
-0.88
-1.28
-1.71
-1.99
-1.99
-1.57
-0.72
0.49
1.86
3.06
3.74
3.65
2.76
1.27
-0.43
-1.93
-2.91
-3.28
-3.15
-2.76
-2.36
-2.13
-2.17
-2.50
-3.11
-3.98
-5.11
-6.44
-7.88
-9.29
-10.55
-11.57
-12.37
-13.04
-13.69
-14.39
-15.15
-15.91
-16.59
-17.15
-17.67
-18.24
-18.98
-19.92
-20.98
-21.97
-22.70
-23.03
-23.02
-22.98
-23.41
-24.75
-27.11
-30.09
-32.79
-34.16
-33.54
-31.05
-27.68
-24.97
-24.39
-26.73
-31.76
-38.46
-45.38
-51.26
-55.43
-57.87
-59.18
-60.45
-63.01
-68.23
-76.88
-88.38
-100.32
-108.45
-107.54
-92.83
-61.80
-15.30
42.22
103.71
161.29
208.27
240.59
257.39
260.75
254.68
243.84
232.37
223.11
217.15
213.85
211.29
206.85
197.68
181.19
155.55
120.35
77.10
29.47
-17.28
-57.49
-86.83
-103.69
-109.48
-107.82
-102.82
-97.56
-93.25
-89.56
-85.64
-81.04
-76.10
-71.66
-68.36
-66.26
-64.72
-62.68
-59.12
-53.43
-45.72
-36.73
-27.67
-19.76
-13.83
-10.03
-7.84
-6.39
-4.89
-2.96
-0.67
1.63
3.66
5.34
6.69
7.70
8.11
7.51
5.57
2.34
-1.63
-5.48
-8.35
-9.75
-9.70
-8.65
-7.15
-5.63
-4.19
-2.76
-1.22
0.42
1.99
3.18
3.72
3.45
2.34
0.57
-1.56
-3.70
-5.45
-6.54
-6.85
-6.45
-5.58
-4.55
-3.62
-3.00
-2.77
-2.93
-3.44
-4.22
-5.15
-6.10
-6.91
-7.43
-7.58
-7.36
-6.85
-6.24
-5.71
-5.44
-5.45
-5.67
-5.88
-5.85
-5.43
-4.59
-3.45
-2.19
-1.00
-0.03
0.68
1.15
1.50
1.87
2.38
3.06
3.83
4.51
4.89
4.83
4.29
3.32
2.10
0.79
-0.44
-1.44
-2.14
-2.52
-2.64
-2.61
-2.55
-2.55
-2.60
-2.68
-2.73
-2.73
-2.64
-2.48
-2.22
-1.85
-1.32
-0.68
0.03
0.70
1.18
1.38
1.24
0.84
0.33
-0.10
-0.28
-0.16
0.19
0.60
0.92
1.09
1.15
1.24
1.41
1.67
1.91
1.95
1.66
0.97
-0.06
-1.33
-2.66
-3.94
-5.04
-5.87
-6.38
-6.55
-6.39
-5.99
-5.46
-4.93
-4.51
-4.23
-4.08
-3.95
-3.77
-3.48
-3.10
-2.63
-2.10
-1.44
-0.59
0.49
1.77
3.13
4.37
5.26
5.67
5.59
5.14
4.55
4.01
3.60
3.29
2.95
2.47
1.86
1.19
0.62
0.23
0.04
-0.04
-0.12
-0.28
-0.53
-0.79
-0.95
-0.92
-0.64
-0.14
0.48
1.11
1.64
1.99
2.16
2.15
1.98
1.68
1.28
0.84
0.43
0.11
-0.07
-0.16
-0.23
-0.35
-0.55
-0.81
-1.08
-1.34
-1.63
-2.01
-2.51
-3.12
-3.74
-4.28
-4.65
-4.84
-4.90
-4.94
-5.04
-5.25
-5.57
-5.94
-6.30
-6.58
-6.69
-6.57
-6.13
-5.30
-4.04
-2.35
-0.37
1.69
3.59
5.13
6.22
6.89
7.22
7.28
7.08
6.63
5.96
5.24
4.66
4.38
4.43
4.69
4.89
4.82
4.34
3.51
2.51
1.54
0.74
0.18
-0.13
-0.22
-0.11
0.17
0.58
1.08
1.58
1.99
2.22
2.23
1.99
1.53
0.93
0.28
-0.32
-0.78
-1.03
-1.05
-0.86
-0.52
-0.13
0.21
0.36
0.25
-0.14
-0.77
-1.52
-2.26
-2.90
-3.39
-3.77
-4.10
-4.44
-4.83
-5.22
-5.55
-5.78
-5.92
-6.03
-6.18
-6.35
-6.50
-6.50
-6.28
-5.86
-5.33
-4.85
-4.53
-4.34
-4.15
-3.74
-2.92
-1.56
0.30
2.49
4.75
6.82
8.49
9.68
10.39
10.70
10.70
10.47
10.04
9.48
8.82
8.13
7.44
6.75
6.00
5.11
4.06
2.89
1.72
0.69
-0.06
-0.50
-0.65
-0.59
-0.45
-0.33
-0.31
-0.41
-0.61
-0.82
-0.97
-1.02
-0.99
-0.94
-0.90
-0.86
-0.76
-0.54
-0.18
0.23
0.52
0.56
0.31
-0.15
-0.67
-1.08
-1.35
-1.55
-1.83
-2.26
-2.84
-3.43
-3.88
-4.09
-4.06
-3.93
-3.82
-3.82
-3.85
-3.81
-3.58
-3.15
-2.61
-2.06
-1.61
-1.25
-0.91
-0.51
-0.01
0.58
1.17
1.67
2.02
2.19
2.23
2.20
2.16
2.16
2.22
2.36
2.57
2.84
3.13
3.39
3.55
3.58
3.49
3.34
3.20
3.13
3.12
3.13
3.09
2.98
2.88
2.87
3.01
3.26
3.51
3.60
3.43
2.99
2.38
1.73
1.13
0.61
0.15
-0.22
-0.42
-0.34
0.08
0.74
1.38
1.66
1.31
0.31
-1.13
-2.65
-3.93
-4.80
-5.30
-5.59
-5.82
-6.02
-6.15
-6.14
-5.99
-5.81
-5.70
-5.76
-5.92
-6.04
-5.97
-5.63
-5.07
-4.39
-3.70
-3.02
-2.29
-1.39
-0.27
1.01
2.32
3.48
4.37
4.92
5.18
5.20
5.04
4.74
4.33
3.89
3.50
3.22
3.08
3.01
2.86
2.49
1.83
0.90
-0.17
-1.14
-1.83
-2.15
-2.10
-1.79
-1.30
-0.69
0.01
0.75
1.44
1.95
2.14
1.89
1.22
0.26
-0.76
-1.59
-2.01
-1.93
-1.42
-0.69
-0.06
0.23
0.03
-0.60
-1.48
-2.40
-3.19
-3.79
-4.21
-4.48
-4.63
-4.66
-4.56
-4.35
-4.06
-3.71
-3.33
-2.95
-2.64
-2.48
-2.56
-2.96
-3.64
-4.48
-5.26
-5.78
-5.84
-5.26
-3.98
-2.03
0.46
3.25
6.01
8.41
10.18
11.14
11.23
10.52
9.21
7.56
5.86
4.34
3.15
2.31
1.75
1.40
1.15
0.99
0.90
0.84
0.77
0.63
0.37
0.00
-0.39
-0.70
-0.82
-0.65
-0.14
0.65
1.57
2.40
2.91
2.98
2.57
1.81
0.89
0.01
-0.68
-1.06
-1.08
-0.77
-0.24
0.33
0.73
0.80
0.52
0.01
-0.56
-1.03
-1.34
-1.53
-1.70
-1.91
-2.18
-2.51
-2.89
-3.33
-3.79
-4.18
-4.36
-4.24
-3.82
-3.24
-2.71
-2.42
-2.44
-2.64
-2.77
-2.60
-1.99
-0.99
0.24
1.47
2.53
3.32
3.86
4.18
4.34
4.36
4.22
3.93
3.51
3.00
2.46
1.97
1.54
1.17
0.85
0.58
0.33
0.10
-0.10
-0.29
-0.45
-0.58
-0.67
-0.72
-0.71
-0.64
-0.47
-0.14
0.37
1.04
1.75
2.35
2.69
2.71
2.45
2.06
1.65
1.33
1.07
0.80
0.48
0.14
-0.10
-0.14
0.07
0.43
0.76
0.86
0.61
0.02
-0.83
-1.80
-2.79
-3.74
-4.63
-5.43
-6.07
-6.46
-6.54
-6.30
-5.85
-5.32
-4.87
-4.58
-4.42
-4.35
-4.28
-4.12
-3.84
-3.38
-2.68
-1.61
-0.10
1.83
3.97
6.00
7.55
8.33
8.26
7.46
6.22
4.85
3.57
2.52
1.72
1.15
0.81
0.68
0.72
0.82
0.82
0.63
0.25
-0.24
-0.67
-0.93
-0.96
-0.79
-0.46
0.00
0.63
1.37
2.13
2.73
2.99
2.88
2.49
2.06
1.73
1.57
1.47
1.29
0.94
0.45
-0.04
-0.41
-0.59
-0.64
-0.70
-0.92
-1.42
-2.20
-3.16
-4.11
-4.82
-5.12
-4.94
-4.34
-3.52
-2.75
-2.26
-2.18
-2.50
-3.04
-3.58
-3.85
-3.70
-3.06
-1.99
-0.64
0.81
2.19
3.35
4.21
4.79
5.14
5.31
5.31
5.11
4.65
3.89
2.94
1.98
1.21
0.75
0.56
0.50
0.40
0.20
-0.01
-0.10
0.03
0.33
0.60
0.63
0.28
-0.39
-1.18
-1.82
-2.11
-1.99
-1.52
-0.86
-0.12
0.61
1.27
1.82
2.16
2.23
2.05
1.74
1.52
1.57
1.95
2.55
3.08
3.27
2.95
2.16
1.16
0.23
-0.39
-0.69
-0.82
-1.04
-1.53
-2.33
-3.31
-4.23
-4.89
-5.20
-5.20
-5.03
-4.85
-4.77
-4.79
-4.88
-4.97
-5.00
-4.91
-4.64
-4.15
-3.38
-2.34
-1.08
0.28
1.62
2.83
3.81
4.55
5.06
5.34
5.39
5.20
4.77
4.16
3.51
3.00
2.76
2.82
3.05
3.23
3.18
2.80
2.17
1.45
0.79
0.23
-0.25
-0.70
-1.12
-1.43
-1.54
-1.37
-0.94
-0.32
0.37
1.02
1.55
1.84
1.82
1.51
0.98
0.43
0.05
-0.05
0.07
0.23
0.24
0.01
-0.44
-0.93
-1.30
-1.45
-1.39
-1.23
-1.09
-1.10
-1.33
-1.76
-2.34
-2.94
-3.44
-3.78
-3.91
-3.86
-3.67
-3.44
-3.24
-3.14
-3.14
-3.22
-3.27
-3.18
-2.83
-2.19
-1.29
-0.26
0.77
1.71
2.52
3.22
3.86
4.46
4.98
5.35
5.52
5.45
5.16
4.73
4.22
3.68
3.14
2.55
1.90
1.19
0.49
-0.09
-0.44
-0.50
-0.33
-0.07
0.05
-0.11
-0.57
-1.15
-1.57
-1.56
-1.01
-0.03
1.07
2.00
2.57
2.76
2.71
2.57
2.45
2.36
2.23
1.96
1.51
0.92
0.30
-0.26
-0.63
-0.79
-0.78
-0.68
-0.63
-0.74
-1.05
-1.58
-2.27
-3.03
-3.80
-4.48
-5.04
-5.46
-5.78
-6.05
-6.30
-6.51
-6.64
-6.59
-6.34
-5.88
-5.27
-4.59
-3.86
-3.10
-2.28
-1.34
-0.22
1.16
2.81
4.65
6.47
7.98
8.86
8.96
8.32
7.23
6.05
5.11
4.51
4.14
3.78
3.22
2.40
1.43
0.49
-0.25
-0.74
-1.03
-1.24
-1.42
-1.53
-1.46
-1.08
-0.33
0.68
1.73
2.55
2.93
2.82
2.34
1.68
1.03
0.47
-0.00
-0.47
-0.98
-1.47
-1.86
-2.04
-1.98
-1.71
-1.33
-0.98
-0.78
-0.79
-1.03
-1.46
-1.98
-2.51
-2.94
-3.23
-3.38
-3.42
-3.40
-3.36
-3.33
-3.32
-3.30
-3.29
-3.29
-3.31
-3.33
-3.25
-2.94
-2.27
-1.20
0.19
1.71
3.09
4.13
4.77
5.04
5.04
4.84
4.44
3.81
2.98
2.02
1.11
0.38
-0.08
-0.28
-0.31
-0.28
-0.28
-0.33
-0.39
-0.41
-0.38
-0.30
-0.25
-0.32
-0.55
-0.90
-1.25
-1.42
-1.22
-0.60
0.38
1.52
2.57
3.26
3.41
2.95
1.99
0.75
-0.42
-1.20
-1.38
-0.96
-0.14
0.75
1.39
1.57
1.27
0.63
-0.15
-0.93
-1.63
-2.25
-2.79
-3.23
-3.54
-3.70
-3.75
-3.78
-3.87
-4.06
-4.32
-4.61
-4.87
-5.07
-5.24
-5.35
-5.39
-5.33
-5.16
-4.89
-4.53
-4.01
-3.21
-1.98
-0.27
1.80
3.96
5.88
7.29
8.07
8.26
8.01
7.47
6.81
6.11
5.44
4.82
4.22
3.61
2.95
2.21
1.44
0.68
-0.02
-0.68
-1.30
-1.86
-2.28
-2.36
-1.96
-0.99
0.43
2.00
3.37
4.28
4.61
4.47
4.04
3.48
2.87
2.18
1.39
0.55
-0.22
-0.76
-0.99
-0.98
-0.93
-1.02
-1.37
-1.94
-2.59
-3.16
-3.59
-3.92
-4.25
-4.71
-5.38
-6.26
-7.30
-8.36
-9.33
-10.05
-10.47
-10.53
-10.26
-9.69
-8.88
-7.92
-6.91
-5.98
-5.15
-4.34
-3.30
-1.72
0.58
3.53
6.79
9.87
12.30
13.83
14.42
14.21
13.33
11.90
10.05
7.95
5.86
4.10
2.88
2.27
2.12
2.18
2.20
2.01
1.54
0.85
0.09
-0.56
-0.92
-0.84
-0.26
0.77
2.11
3.53
4.80
5.73
6.19
6.10
5.44
4.34
3.00
1.69
0.67
0.05
-0.20
-0.22
-0.18
-0.19
-0.22
-0.19
-0.04
0.21
0.46
0.61
0.55
0.21
-0.44
-1.36
-2.47
-3.63
-4.63
-5.31
-5.57
-5.47
-5.16
-4.83
-4.61
-4.52
-4.50
-4.44
-4.29
-4.02
-3.60
-3.03
-2.27
-1.32
-0.26
0.81
1.77
2.56
3.21
3.82
4.44
5.08
5.62
5.88
5.72
5.10
4.12
2.96
1.84
0.93
0.32
0.01
-0.05
0.08
0.31
0.59
0.87
1.11
1.26
1.29
1.21
1.09
1.07
1.26
1.71
2.35
3.00
3.45
3.53
3.23
2.67
2.04
1.53
1.23
1.18
1.30
1.55
1.88
2.27
2.70
3.08
3.27
3.10
2.44
1.22
-0.45
-2.38
-4.32
-6.03
-7.38
-8.31
-8.89
-9.22
-9.41
-9.52
-9.56
-9.50
-9.32
-9.02
-8.66
-8.31
-8.03
-7.79
-7.51
-7.06
-6.31
-5.18
-3.65
-1.73
0.49
2.89
5.27
7.36
8.90
9.71
9.75
9.15
8.17
7.05
5.99
5.07
4.29
3.64
3.13
2.79
2.62
2.57
2.51
2.34
1.98
1.45
0.84
0.26
-0.20
-0.45
-0.47
-0.24
0.21
0.83
1.50
2.06
2.38
2.36
1.97
1.28
0.44
-0.38
-1.02
-1.38
-1.41
-1.17
-0.78
-0.40
-0.15
-0.13
-0.36
-0.79
-1.40
-2.12
-2.88
-3.59
-4.14
-4.42
-4.40
-4.12
-3.71
-3.33
-3.12
-3.17
-3.44
-3.81
-4.11
-4.23
-4.09
-3.70
-3.11
-2.35
-1.43
-0.35
0.86
2.15
3.39
4.49
5.38
6.03
6.40
6.45
6.16
5.55
4.72
3.82
2.99
2.26
1.62
1.01
0.43
-0.07
-0.42
-0.58
-0.64
-0.71
-0.89
-1.21
-1.58
-1.85
-1.87
-1.58
-0.95
-0.07
0.94
1.92
2.71
3.16
3.19
2.78
2.03
1.07
0.11
-0.66
-1.09
-1.10
-0.76
-0.23
0.31
0.68
0.80
0.67
0.36
-0.07
-0.58
-1.14
-1.73
-2.29
-2.75
-3.08
-3.28
-3.42
-3.56
-3.75
-3.95
-4.12
-4.20
-4.21
-4.19
-4.20
-4.23
-4.19
-3.91
-3.28
-2.25
-0.95
0.41
1.63
2.58
3.28
3.86
4.47
5.18
5.93
6.53
6.78
6.51
5.73
4.57
3.24
1.96
0.88
0.04
-0.58
-0.99
-1.19
-1.16
-0.94
-0.62
-0.33
-0.23
-0.35
-0.62
-0.86
-0.90
-0.64
-0.08
0.66
1.44
2.14
2.67
2.95
2.90
2.45
1.61
0.47
-0.78
-1.85
-2.51
-2.63
-2.26
-1.62
-0.95
-0.48
-0.31
-0.43
-0.71
-1.03
-1.30
-1.51
-1.69
-1.90
-2.16
-2.45
-2.70
-2.89
-2.99
-3.04
-3.11
-3.26
-3.50
-3.77
-3.96
-3.94
-3.60
-2.93
-1.99
-0.90
0.17
1.11
1.84
2.42
2.92
3.47
4.13
4.86
5.54
5.99
6.04
5.66
4.93
4.01
3.07
2.20
1.37
0.56
-0.25
-0.98
-1.48
-1.65
-1.49
-1.13
-0.78
-0.58
-0.60
-0.75
-0.86
-0.78
-0.41
0.21
0.95
1.62
2.04
2.08
1.74
1.12
0.41
-0.19
-0.47
-0.32
0.25
1.08
1.95
2.57
2.75
2.43
1.69
0.69
-0.39
-1.43
-2.37
-3.19
-3.86
-4.27
-4.35
-4.13
-3.70
-3.26
-2.98
-2.92
-3.02
-3.12
-3.10
-2.92
-2.63
-2.34
-2.09
-1.89
-1.66
-1.36
-0.93
-0.40
0.24
0.96
1.76
2.58
3.31
3.81
3.98
3.77
3.26
2.54
1.75
1.00
0.37
-0.09
-0.38
-0.52
-0.54
-0.50
-0.47
-0.51
-0.67
-0.98
-1.44
-1.96
-2.42
-2.63
-2.46
-1.86
-0.86
0.38
1.68
2.85
3.78
4.38
4.61
4.49
4.09
3.53
2.93
2.40
2.00
1.76
1.62
1.50
1.29
0.88
0.24
-0.56
-1.40
-2.15
-2.74
-3.19
-3.59
-4.04
-4.54
-4.99
-5.25
-5.19
-4.78
-4.04
-3.08
-1.98
-0.82
0.33
1.40
2.29
2.94
3.32
3.49
3.55
3.65
3.90
4.29
4.74
5.08
5.16
4.90
4.33
3.54
2.64
1.72
0.83
-0.01
-0.76
-1.37
-1.82
-2.14
-2.37
-2.59
-2.80
-2.95
-2.96
-2.77
-2.36
-1.83
-1.32
-0.96
-0.89
-1.10
-1.49
-1.85
-1.91
-1.43
-0.36
1.12
2.67
3.86
4.39
4.21
3.47
2.50
1.59
0.94
0.60
0.50
0.55
0.66
0.74
0.77
0.71
0.58
0.34
-0.03
-0.59
-1.36
-2.32
-3.35
-4.26
-4.87
-5.11
-5.01
-4.72
-4.41
-4.22
-4.18
-4.26
-4.42
-4.65
-4.95
-5.29
-5.58
-5.65
-5.27
-4.29
-2.70
-0.65
1.54
3.56
5.16
6.21
6.80
7.03
7.03
6.83
6.39
5.68
4.72
3.63
2.62
1.84
1.34
1.06
0.87
0.63
0.29
-0.11
-0.51
-0.87
-1.17
-1.44
-1.69
-1.88
-1.93
-1.76
-1.35
-0.72
0.00
0.70
1.27
1.65
1.83
1.81
1.62
1.29
0.89
0.49
0.18
-0.01
-0.09
-0.12
-0.16
-0.25
-0.38
-0.52
-0.64
-0.72
-0.77
-0.80
-0.80
-0.80
-0.79
-0.78
-0.76
-0.75
-0.76
-0.80
-0.88
-0.97
-1.04
-1.03
-0.89
-0.62
-0.24
0.15
0.45
0.60
0.63
0.61
0.63
0.79
1.15
1.70
2.36
3.00
3.48
3.64
3.41
2.78
1.87
0.81
-0.21
-1.08
-1.69
-2.06
-2.20
-2.16
-1.98
-1.72
-1.39
-1.02
-0.59
-0.10
0.45
1.04
1.64
2.27
2.91
3.59
4.25
4.81
5.15
5.18
4.87
4.28
3.57
2.86
2.26
1.84
1.61
1.56
1.64
1.76
1.81
1.67
1.28
0.66
-0.14
-1.03
-1.94
-2.84
-3.67
-4.36
-4.85
-5.04
-4.96
-4.68
-4.38
-4.22
-4.28
-4.56
-4.98
-5.37
-5.64
-5.72
-5.60
-5.30
-4.83
-4.23
-3.52
-2.74
-1.93
-1.13
-0.33
0.49
1.35
2.23
3.08
3.79
4.23
4.31
4.03
3.47
2.79
2.20
1.85
1.81
2.04
2.40
2.73
2.90
2.89
2.73
2.54
2.41
2.37
2.45
2.61
2.79
2.99
3.19
3.41
3.64
3.80
3.78
3.45
2.73
1.67
0.43
-0.79
-1.80
-2.50
-2.91
-3.07
-3.04
-2.84
-2.46
-1.95
-1.42
-0.99
-0.78
-0.84
-1.15
-1.66
-2.28
-2.93
-3.54
-4.03
-4.30
-4.34
-4.19
-3.97
-3.81
-3.80
-3.93
-4.13
-4.29
-4.34
-4.26
-4.05
-3.68
-3.11
-2.27
-1.11
0.33
1.94
3.58
5.05
6.22
6.98
7.26
7.09
6.53
5.71
4.78
3.88
3.13
2.57
2.23
2.07
2.02
1.95
1.74
1.30
0.64
-0.16
-0.97
-1.62
-2.03
-2.14
-1.93
-1.46
-0.78
0.03
0.85
1.60
2.17
2.52
2.58
2.27
1.57
0.53
-0.68
-1.78
-2.50
-2.67
-2.31
-1.63
-0.89
-0.36
-0.12
-0.12
-0.26
-0.45
-0.69
-1.05
-1.59
-2.28
-2.96
-3.45
-3.59
-3.37
-2.88
-2.32
-1.89
-1.69
-1.74
-1.94
-2.20
-2.39
-2.46
-2.38
-2.15
-1.77
-1.22
-0.52
0.31
1.21
2.09
2.87
3.49
3.90
4.10
4.06
3.80
3.34
2.72
2.01
1.30
0.64
0.10
-0.29
-0.52
-0.59
-0.50
-0.32
-0.11
0.04
0.08
-0.00
-0.14
-0.22
-0.16
0.12
0.59
1.20
1.85
2.46
2.97
3.32
3.44
3.26
2.70
1.77
0.58
-0.63
-1.54
-1.91
-1.68
-0.98
-0.12
0.57
0.84
0.64
0.09
-0.68
-1.50
-2.32
-3.10
-3.82
-4.42
-4.78
-4.81
-4.46
-3.81
-3.03
-2.32
-1.86
-1.74
-1.93
-2.32
-2.77
-3.10
-3.20
-2.98
-2.47
-1.72
-0.86
0.04
0.91
1.74
2.56
3.36
4.09
4.70
5.14
5.36
5.34
5.07
4.55
3.84
3.01
2.19
1.52
1.04
0.74
0.50
0.20
-0.23
-0.78
-1.39
-1.98
-2.47
-2.83
-2.99
-2.87
-2.40
-1.55
-0.38
0.96
2.22
3.21
3.78
3.85
3.51
2.86
2.08
1.32
0.69
0.26
0.06
0.05
0.18
0.35
0.48
0.47
0.27
-0.12
-0.65
-1.24
-1.78
-2.24
-2.61
-2.93
-3.22
-3.48
-3.66
-3.74
-3.69
-3.54
-3.28
-2.95
-2.58
-2.24
-2.00
-1.97
-2.13
-2.42
-2.64
-2.60
-2.14
-1.22
0.09
1.63
3.18
4.52
5.47
5.98
6.07
5.85
5.45
4.96
4.43
3.84
3.19
2.50
1.80
1.16
0.62
0.14
-0.28
-0.64
-0.92
-1.07
-1.08
-0.94
-0.71
-0.40
0.01
0.54
1.24
2.05
2.83
3.37
3.47
3.02
2.06
0.79
-0.53
-1.59
-2.21
-2.31
-1.97
-1.38
-0.76
-0.31
-0.16
-0.33
-0.75
-1.31
-1.88
-2.38
-2.77
-3.03
-3.16
-3.20
-3.15
-3.05
-2.95
-2.93
-3.04
-3.30
-3.64
-3.95
-4.06
-3.91
-3.50
-2.96
-2.42
-1.97
-1.61
-1.21
-0.68
0.06
0.94
1.88
2.78
3.61
4.42
5.23
6.02
6.68
7.12
7.24
7.00
6.43
5.59
4.52
3.28
1.98
0.68
-0.48
-1.43
-2.11
-2.51
-2.65
-2.58
-2.32
-1.89
-1.28
-0.47
0.54
1.64
2.63
3.26
3.33
2.79
1.78
0.57
-0.56
-1.41
-1.90
-2.02
-1.84
-1.40
-0.77
-0.07
0.50
0.76
0.58
-0.05
-1.01
-2.06
-2.99
-3.62
-3.90
-3.88
-3.67
-3.37
-3.05
-2.72
-2.38
-2.04
-1.75
-1.63
-1.73
-2.05
-2.46
-2.75
-2.75
-2.41
-1.82
-1.15
-0.57
-0.11
0.32
0.90
1.76
2.85
3.98
4.89
5.34
5.26
4.72
3.90
2.97
2.07
1.31
0.73
0.37
0.26
0.34
0.52
0.67
0.72
0.62
0.41
0.16
-0.02
-0.03
0.20
0.70
1.44
2.28
3.00
3.38
3.25
2.59
1.51
0.25
-0.96
-1.92
-2.50
-2.69
-2.53
-2.13
-1.61
-1.14
-0.88
-0.95
-1.37
-2.05
-2.79
-3.38
-3.65
-3.58
-3.25
-2.82
-2.44
-2.20
-2.07
-2.00
-1.90
-1.73
-1.49
-1.21
-0.96
-0.79
-0.77
-0.91
-1.18
-1.49
-1.69
-1.68
-1.42
-1.01
-0.59
-0.30
-0.13
0.05
0.42
1.12
2.14
3.30
4.36
5.12
5.48
5.50
5.24
4.83
4.33
3.81
3.35
3.00
2.83
2.82
2.93
3.05
3.06
2.92
2.61
2.18
1.68
1.22
0.88
0.69
0.67
0.76
0.85
0.84
0.65
0.31
-0.13
-0.58
-0.95
-1.22
-1.39
-1.47
-1.48
-1.46
-1.44
-1.46
-1.54
-1.66
-1.77
-1.81
-1.74
-1.60
-1.45
-1.38
-1.46
-1.69
-2.04
-2.43
-2.81
-3.10
-3.28
-3.33
-3.25
-3.07
-2.85
-2.67
-2.60
-2.65
-2.79
-2.86
-2.75
-2.37
-1.75
-0.99
-0.22
0.48
1.14
1.80
2.53
3.29
3.95
4.38
4.51
4.32
3.88
3.32
2.73
2.19
1.78
1.52
1.40
1.38
1.37
1.30
1.17
1.01
0.90
0.85
0.84
0.81
0.72
0.61
0.59
0.76
1.15
1.65
2.04
2.12
1.76
0.99
-0.00
-0.98
-1.72
-2.08
-2.01
-1.53
-0.81
-0.07
0.40
0.41
-0.11
-0.96
-1.81
-2.34
-2.39
-2.07
-1.68
-1.56
-1.84
-2.49
-3.24
-3.79
-3.98
-3.79
-3.35
-2.84
-2.43
-2.16
-2.02
-1.97
-1.96
-1.98
-2.00
-1.96
-1.75
-1.25
-0.37
0.89
2.42
4.01
5.41
6.39
6.83
6.72
6.13
5.21
4.10
2.91
1.75
0.71
-0.09
-0.58
-0.73
-0.58
-0.26
0.07
0.26
0.25
0.04
-0.31
-0.73
-1.13
-1.44
-1.58
-1.44
-0.97
-0.18
0.79
1.73
2.43
2.73
2.63
2.21
1.60
0.92
0.25
-0.36
-0.84
-1.13
-1.16
-0.96
-0.63
-0.30
-0.11
-0.13
-0.35
-0.69
-1.11
-1.58
-2.08
-2.55
-2.90
-3.03
-2.88
-2.53
-2.12
-1.80
-1.71
-1.85
-2.17
-2.58
-2.94
-3.17
-3.21
-3.04
-2.72
-2.28
-1.79
-1.27
-0.70
-0.02
0.81
1.78
2.80
3.77
4.55
5.07
5.26
5.13
4.70
4.01
3.16
2.25
1.40
0.72
0.24
0.00
-0.06
-0.01
0.08
0.15
0.19
0.19
0.16
0.13
0.10
0.15
0.34
0.74
1.35
2.12
2.86
3.37
3.44
3.00
2.14
1.07
0.08
-0.61
-0.93
-0.98
-0.93
-0.93
-1.01
-1.12
-1.19
-1.18
-1.15
-1.18
-1.36
-1.65
-1.96
-2.19
-2.32
-2.41
-2.55
-2.78
-3.04
-3.21
-3.16
-2.89
-2.49
-2.12
-1.92
-1.95
-2.15
-2.38
-2.51
-2.45
-2.17
-1.71
-1.06
-0.22
0.82
2.05
3.35
4.51
5.29
5.49
5.08
4.18
3.04
1.93
1.07
0.54
0.34
0.38
0.56
0.80
1.03
1.19
1.24
1.12
0.83
0.41
-0.05
-0.44
-0.64
-0.58
-0.25
0.33
1.05
1.78
2.34
2.58
2.38
1.75
0.81
-0.22
-1.11
-1.65
-1.76
-1.48
-0.94
-0.36
0.10
0.32
0.28
0.05
-0.31
-0.72
-1.16
-1.58
-1.95
-2.24
-2.39
-2.43
-2.41
-2.41
-2.46
-2.57
-2.69
-2.79
-2.87
-2.96
-3.05
-3.08
-2.97
-2.66
-2.15
-1.51
-0.81
-0.12
0.58
1.32
2.12
2.94
3.68
4.26
4.61
4.72
4.60
4.26
3.68
2.87
1.88
0.80
-0.18
-0.85
-1.07
-0.83
-0.23
0.50
1.10
1.40
1.36
1.04
0.58
0.10
-0.27
-0.43
-0.34
0.02
0.56
1.17
1.67
1.94
1.91
1.61
1.15
0.64
0.18
-0.18
-0.43
-0.55
-0.56
-0.49
-0.38
-0.33
-0.40
-0.61
-0.93
-1.26
-1.50
-1.59
-1.56
-1.51
-1.58
-1.83
-2.23
-2.61
-2.80
-2.68
-2.31
-1.89
-1.66
-1.77
-2.19
-2.73
-3.13
-3.23
-2.99
-2.53
-1.96
-1.34
-0.68
0.09
0.94
1.79
2.53
3.06
3.38
3.57
3.69
3.77
3.76
3.55
3.07
2.34
1.48
0.68
0.09
-0.21
-0.26
-0.18
-0.10
-0.09
-0.17
-0.26
-0.32
-0.28
-0.13
0.15
0.58
1.13
1.78
2.40
2.88
3.11
3.07
2.80
2.39
1.98
1.62
1.38
1.23
1.13
1.00
0.79
0.48
0.10
-0.32
-0.73
-1.14
-1.53
-1.93
-2.32
-2.68
-2.97
-3.22
-3.44
-3.67
-3.90
-4.10
-4.19
-4.15
-3.98
-3.75
-3.53
-3.35
-3.21
-3.04
-2.81
-2.48
-2.04
-1.54
-0.98
-0.36
0.37
1.25
2.31
3.49
4.66
5.62
6.16
6.18
5.69
4.86
3.90
3.02
2.34
1.89
1.63
1.49
1.41
1.36
1.29
1.14
0.87
0.45
-0.08
-0.63
-1.05
-1.21
-1.03
-0.50
0.31
1.26
2.17
2.87
3.19
3.04
2.43
1.48
0.39
-0.60
-1.26
-1.46
-1.23
-0.71
-0.13
0.26
0.32
0.01
-0.58
-1.28
-1.97
-2.55
-3.00
-3.37
-3.72
-4.10
-4.48
-4.80
-5.02
-5.09
-5.00
-4.76
-4.38
-3.86
-3.27
-2.68
-2.23
-2.02
-2.05
-2.21
-2.24
-1.90
-1.04
0.31
2.00
3.79
5.43
6.72
7.56
7.89
7.75
7.24
6.49
5.66
4.82
4.03
3.26
2.49
1.75
1.09
0.56
0.16
-0.18
-0.52
-0.92
-1.34
-1.72
-1.98
-2.04
-1.89
-1.49
-0.86
0.00
1.03
2.11
3.05
3.65
3.77
3.36
2.47
1.28
0.05
-0.94
-1.47
-1.47
-1.02
-0.35
0.26
0.61
0.61
0.29
-0.23
-0.84
-1.46
-2.09
-2.70
-3.27
-3.73
-4.06
-4.22
-4.23
-4.11
-3.90
-3.63
-3.33
-3.00
-2.70
-2.48
-2.38
-2.37
-2.35
-2.15
-1.64
-0.81
0.25
1.36
2.34
3.12
3.74
4.30
4.83
5.27
5.48
5.30
4.71
3.79
2.73
1.70
0.79
0.04
-0.55
-0.97
-1.19
-1.22
-1.10
-0.95
-0.89
-0.97
-1.18
-1.41
-1.51
-1.36
-0.88
-0.08
0.93
1.99
2.87
3.42
3.54
3.28
2.74
2.10
1.47
0.91
0.40
-0.06
-0.49
-0.87
-1.18
-1.41
-1.58
-1.69
-1.76
-1.82
-1.88
-2.00
-2.19
-2.47
-2.78
-3.06
-3.19
-3.13
-2.87
-2.49
-2.14
-1.96
-2.02
-2.29
-2.65
-2.91
-2.91
-2.56
-1.85
-0.87
0.24
1.35
2.33
3.07
3.45
3.45
3.07
2.46
1.79
1.27
1.04
1.10
1.40
1.80
2.16
2.40
2.47
2.39
2.14
1.76
1.28
0.77
0.29
-0.09
-0.37
-0.60
-0.82
-1.06
-1.25
-1.33
-1.18
-0.78
-0.15
0.61
1.37
1.98
2.28
2.20
1.74
1.01
0.18
-0.53
-0.92
-0.91
-0.54
0.04
0.61
1.00
1.09
0.86
0.38
-0.27
-0.99
-1.75
-2.51
-3.24
-3.89
-4.35
-4.54
-4.44
-4.11
-3.69
-3.31
-3.06
-2.99
-3.07
-3.26
-3.51
-3.78
-3.98
-3.99
-3.61
-2.66
-1.08
1.02
3.36
5.53
7.14
7.96
7.95
7.27
6.21
5.10
4.19
3.62
3.37
3.33
3.35
3.26
3.00
2.54
1.93
1.21
0.39
-0.50
-1.41
-2.22
-2.82
-3.09
-2.98
-2.54
-1.87
-1.10
-0.28
0.56
1.45
2.38
3.27
3.93
4.17
3.81
2.86
1.52
0.13
-0.98
-1.57
-1.67
-1.44
-1.12
-0.89
-0.80
-0.83
-0.95
-1.20
-1.68
-2.46
-3.49
-4.59
-5.48
-5.96
-5.97
-5.66
-5.31
-5.17
-5.37
-5.81
-6.32
-6.69
-6.80
-6.66
-6.35
-5.98
-5.56
-5.10
-4.54
-3.84
-2.98
-1.89
-0.51
1.24
3.38
5.79
8.23
10.35
11.79
12.33
11.91
10.74
9.13
7.47
6.03
4.95
4.19
3.65
3.23
2.86
2.55
2.30
2.08
1.80
1.40
0.88
0.32
-0.10
-0.24
-0.06
0.31
0.64
0.73
0.51
0.08
-0.36
-0.64
-0.66
-0.43
0.01
0.60
1.33
2.12
2.81
3.20
3.10
2.47
1.46
0.32
-0.66
-1.34
-1.73
-1.97
-2.18
-2.45
-2.75
-3.04
-3.29
-3.50
-3.67
-3.79
-3.83
-3.73
-3.46
-3.05
-2.59
-2.21
-1.98
-1.91
-1.91
-1.84
-1.59
-1.12
-0.53
0.03
0.39
0.52
0.50
0.54
0.87
1.62
2.71
3.89
4.83
5.27
5.10
4.42
3.48
2.49
1.62
0.88
0.21
-0.43
-1.02
-1.48
-1.71
-1.71
-1.51
-1.22
-0.94
-0.67
-0.37
0.09
0.75
1.60
2.48
3.18
3.47
3.23
2.49
1.46
0.44
-0.30
-0.58
-0.41
0.01
0.43
0.63
0.51
0.09
-0.52
-1.18
-1.79
-2.30
-2.70
-3.00
-3.21
-3.38
-3.56
-3.78
-4.01
-4.19
-4.27
-4.23
-4.14
-4.11
-4.16
-4.24
-4.20
-3.83
-3.06
-1.96
-0.76
0.27
0.97
1.37
1.64
2.00
2.55
3.23
3.85
4.25
4.34
4.17
3.89
3.61
3.37
3.09
2.67
2.09
1.43
0.85
0.53
0.51
0.68
0.87
0.88
0.66
0.27
-0.13
-0.37
-0.33
-0.03
0.46
0.99
1.46
1.78
1.89
1.76
1.35
0.73
0.00
-0.64
-1.03
-1.08
-0.81
-0.36
0.09
0.42
0.57
0.56
0.43
0.24
-0.01
-0.33
-0.71
-1.11
-1.49
-1.83
-2.14
-2.44
-2.72
-2.95
-3.07
-3.03
-2.83
-2.52
-2.20
-1.94
-1.77
-1.69
-1.69
-1.72
-1.73
-1.69
-1.51
-1.14
-0.57
0.17
0.92
1.56
1.99
2.22
2.34
2.50
2.79
3.21
3.68
4.04
4.18
4.06
3.66
3.05
2.30
1.50
0.72
0.06
-0.41
-0.66
-0.73
-0.71
-0.72
-0.86
-1.09
-1.33
-1.40
-1.17
-0.61
0.20
1.05
1.71
2.01
1.90
1.42
0.71
-0.05
-0.73
-1.20
-1.43
-1.39
-1.14
-0.73
-0.25
0.23
0.64
0.92
1.00
0.82
0.35
-0.35
-1.18
-1.94
-2.48
-2.72
-2.70
-2.58
-2.49
-2.52
-2.63
-2.68
-2.57
-2.27
-1.87
-1.53
-1.40
-1.55
-1.93
-2.43
-2.89
-3.15
-3.07
-2.54
-1.52
-0.05
1.74
3.60
5.27
6.48
7.09
7.08
6.57
5.74
4.78
3.84
2.97
2.16
1.38
0.66
0.04
-0.41
-0.65
-0.68
-0.59
-0.49
-0.48
-0.59
-0.82
-1.10
-1.37
-1.54
-1.54
-1.30
-0.80
-0.05
0.87
1.81
2.61
3.14
3.30
3.07
2.49
1.63
0.63
-0.34
-1.08
-1.45
-1.42
-1.08
-0.61
-0.18
0.07
0.14
0.06
-0.11
-0.36
-0.74
-1.27
-1.94
-2.70
-3.41
-3.94
-4.21
-4.23
-4.03
-3.71
-3.40
-3.18
-3.12
-3.19
-3.33
-3.40
-3.22
-2.68
-1.73
-0.46
0.92
2.13
2.95
3.27
3.14
2.76
2.36
2.11
2.06
2.16
2.30
2.44
2.54
2.64
2.72
2.71
2.51
2.06
1.43
0.75
0.22
-0.02
0.00
0.16
0.26
0.16
-0.13
-0.48
-0.69
-0.63
-0.30
0.18
0.63
0.91
0.95
0.78
0.49
0.19
-0.04
-0.13
-0.10
0.02
0.15
0.23
0.25
0.19
0.06
-0.14
-0.45
-0.90
-1.47
-2.11
-2.73
-3.27
-3.69
-4.05
-4.40
-4.79
-5.16
-5.45
-5.54
-5.42
-5.16
-4.91
-4.81
-4.93
-5.25
-5.60
-5.74
-5.45
-4.56
-3.07
-1.10
1.11
3.28
5.21
6.78
7.93
8.66
8.97
8.86
8.35
7.55
6.63
5.83
5.29
5.10
5.16
5.29
5.29
5.01
4.43
3.62
2.75
1.96
1.34
0.93
0.65
0.44
0.22
0.04
-0.02
0.12
0.45
0.85
1.14
1.14
0.78
0.16
-0.50
-1.01
-1.22
-1.14
-0.85
-0.48
-0.12
0.16
0.30
0.24
-0.05
-0.52
-1.08
-1.61
-2.00
-2.26
-2.44
-2.60
-2.74
-2.85
-2.84
-2.74
-2.57
-2.43
-2.39
-2.44
-2.53
-2.55
-2.44
-2.19
-1.84
-1.49
-1.20
-1.02
-0.96
-0.97
-1.01
-1.04
-1.03
-0.92
-0.65
-0.14
0.62
1.60
2.63
3.48
3.94
3.89
3.38
2.58
1.73
1.02
0.54
0.28
0.13
-0.03
-0.24
-0.47
-0.62
-0.60
-0.39
0.01
0.53
1.12
1.74
2.34
2.86
3.20
3.29
3.07
2.59
1.97
1.35
0.88
0.57
0.40
0.31
0.23
0.16
0.07
-0.06
-0.25
-0.57
-1.01
-1.55
-2.12
-2.63
-3.01
-3.24
-3.35
-3.42
-3.50
-3.66
-3.88
-4.09
-4.20
-4.16
-3.96
-3.63
-3.27
-2.93
-2.62
-2.32
-2.02
-1.73
-1.49
-1.35
-1.30
-1.24
-1.00
-0.42
0.57
1.88
3.28
4.48
5.24
5.46
5.19
4.58
3.85
3.17
2.64
2.28
2.03
1.87
1.76
1.69
1.68
1.70
1.72
1.69
1.59
1.40
1.14
0.91
0.81
0.93
1.28
1.78
2.27
2.53
2.39
1.78
0.83
-0.25
-1.18
-1.77
-2.00
-1.96
-1.83
-1.73
-1.72
-1.73
-1.70
-1.56
-1.36
-1.23
-1.31
-1.69
-2.34
-3.12
-3.82
-4.29
-4.50
-4.48
-4.33
-4.12
-3.88
-3.54
-3.11
-2.60
-2.15
-1.90
-1.94
-2.23
-2.61
-2.84
-2.68
-2.01
-0.83
0.75
2.57
4.46
6.28
7.84
8.98
9.50
9.25
8.20
6.50
4.46
2.46
0.84
-0.23
-0.77
-0.95
-0.98
-1.03
-1.16
-1.37
-1.61
-1.80
-1.88
-1.82
-1.59
-1.23
-0.76
-0.23
0.33
0.95
1.62
2.35
3.01
3.47
3.57
3.24
2.53
1.62
0.71
0.02
-0.35
-0.39
-0.16
0.23
0.64
0.98
1.17
1.17
0.97
0.59
0.08
-0.51
-1.17
-1.85
-2.55
-3.21
-3.76
-4.15
-4.33
-4.29
-4.07
-3.75
-3.40
-3.13
-3.01
-3.06
-3.24
-3.41
-3.40
-3.09
-2.49
-1.70
-0.89
-0.18
0.42
1.01
1.71
2.52
3.34
3.99
4.33
4.37
4.21
3.96
3.69
3.36
2.93
2.35
1.72
1.17
0.82
0.71
0.77
0.87
0.86
0.70
0.37
-0.02
-0.36
-0.52
-0.40
-0.01
0.55
1.11
1.49
1.58
1.39
1.02
0.61
0.23
-0.08
-0.32
-0.50
-0.58
-0.52
-0.31
-0.02
0.21
0.25
0.04
-0.38
-0.89
-1.34
-1.64
-1.81
-1.92
-2.07
-2.32
-2.68
-3.09
-3.44
-3.65
-3.71
-3.65
-3.58
-3.58
-3.68
-3.81
-3.82
-3.60
-3.07
-2.29
-1.39
-0.50
0.26
0.90
1.45
1.97
2.50
3.02
3.50
3.93
4.29
4.58
4.78
4.88
4.83
4.61
4.20
3.63
2.96
2.29
1.69
1.19
0.78
0.44
0.14
-0.11
-0.28
-0.35
-0.31
-0.20
-0.04
0.18
0.48
0.87
1.31
1.68
1.81
1.60
1.07
0.35
-0.35
-0.86
-1.11
-1.15
-1.09
-1.03
-1.01
-1.04
-1.10
-1.22
-1.42
-1.71
-2.06
-2.39
-2.63
-2.75
-2.77
-2.79
-2.85
-2.96
-3.11
-3.20
-3.19
-3.04
-2.76
-2.41
-2.07
-1.81
-1.67
-1.65
-1.66
-1.62
-1.43
-1.02
-0.40
0.39
1.31
2.32
3.42
4.58
5.74
6.74
7.39
7.52
7.02
5.95
4.53
3.05
1.81
0.99
0.61
0.55
0.65
0.74
0.69
0.48
0.09
-0.42
-0.98
-1.48
-1.81
-1.93
-1.83
-1.59
-1.28
-0.96
-0.67
-0.43
-0.26
-0.21
-0.29
-0.46
-0.60
-0.56
-0.27
0.27
0.87
1.32
1.41
1.08
0.43
-0.37
-1.11
-1.66
-2.03
-2.29
-2.51
-2.72
-2.89
-2.96
-2.95
-2.93
-3.01
-3.25
-3.63
-4.04
-4.28
-4.19
-3.75
-3.10
-2.50
-2.20
-2.32
-2.75
-3.22
-3.39
-3.00
-2.00
-0.56
1.02
2.43
3.52
4.31
4.93
5.52
6.10
6.55
6.73
6.56
6.10
5.52
4.96
4.45
3.89
3.15
2.15
0.98
-0.14
-0.99
-1.46
-1.60
-1.59
-1.60
-1.71
-1.88
-1.96
-1.78
-1.23
-0.35
0.67
1.56
2.05
2.03
1.59
1.04
0.71
0.82
1.35
2.06
2.57
2.62
2.16
1.37
0.51
-0.19
-0.67
-0.99
-1.31
-1.71
-2.21
-2.71
-3.09
-3.28
-3.28
-3.18
-3.08
-3.06
-3.17
-3.42
-3.76
-4.13
-4.48
-4.72
-4.77
-4.56
-4.07
-3.33
-2.47
-1.60
-0.80
-0.09
0.54
1.16
1.79
2.41
3.03
3.64
4.25
4.86
5.41
5.75
5.74
5.28
4.39
3.23
2.01
0.96
0.19
-0.24
-0.36
-0.22
0.08
0.46
0.79
0.96
0.90
0.58
0.11
-0.34
-0.59
-0.51
-0.08
0.59
1.34
1.99
2.38
2.45
2.24
1.86
1.46
1.18
1.06
1.08
1.19
1.32
1.40
1.44
1.38
1.20
0.82
0.23
-0.54
-1.35
-2.05
-2.49
-2.64
-2.58
-2.47
-2.43
-2.50
-2.65
-2.77
-2.80
-2.75
-2.65
-2.55
-2.46
-2.35
-2.16
-1.93
-1.72
-1.64
-1.74
-1.93
-2.05
-1.92
-1.42
-0.61
0.34
1.21
1.82
2.13
2.20
2.13
1.97
1.74
1.40
0.95
0.45
0.02
-0.22
-0.24
-0.10
0.11
0.31
0.50
0.74
1.11
1.61
2.21
2.81
3.35
3.78
4.04
4.10
3.87
3.30
2.36
1.17
-0.07
-1.09
-1.65
-1.67
-1.28
-0.74
-0.38
-0.46
-1.08
-2.14
-3.42
-4.63
-5.57
-6.10
-6.17
-5.76
-4.95
-3.84
-2.63
-1.54
-0.76
-0.37
-0.32
-0.49
-0.76
-1.06
-1.40
-1.80
-2.20
-2.51
-2.58
-2.35
-1.80
-1.03
-0.15
0.73
1.61
2.49
3.42
4.40
5.36
6.18
6.73
6.87
6.58
5.95
5.09
4.18
3.31
2.57
1.96
1.51
1.21
1.05
0.98
0.91
0.72
0.38
-0.12
-0.67
-1.14
-1.40
-1.35
-0.98
-0.33
0.47
1.25
1.84
2.14
2.14
1.91
1.58
1.26
0.98
0.72
0.43
0.08
-0.32
-0.69
-0.99
-1.17
-1.27
-1.31
-1.38
-1.53
-1.83
-2.30
-2.96
-3.73
-4.49
-5.09
-5.39
-5.34
-5.04
-4.67
-4.42
-4.42
-4.65
-5.00
-5.32
-5.48
-5.38
-4.98
-4.23
-3.13
-1.68
0.01
1.78
3.47
4.91
6.07
6.94
7.55
7.88
7.83
7.31
6.32
4.99
3.56
2.31
1.46
1.05
1.01
1.14
1.26
1.24
1.06
0.73
0.30
-0.21
-0.76
-1.33
-1.87
-2.27
-2.39
-2.10
-1.38
-0.34
0.78
1.72
2.29
2.44
2.27
1.93
1.52
1.09
0.62
0.10
-0.43
-0.88
-1.16
-1.26
-1.25
-1.23
-1.25
-1.33
-1.45
-1.58
-1.72
-1.91
-2.14
-2.36
-2.49
-2.48
-2.33
-2.09
-1.86
-1.73
-1.71
-1.77
-1.87
-1.96
-2.00
-1.97
-1.80
-1.45
-0.92
-0.25
0.47
1.14
1.74
2.28
2.84
3.47
4.12
4.68
4.98
4.91
4.48
3.81
3.08
2.48
2.10
1.91
1.84
1.79
1.69
1.53
1.32
1.08
0.79
0.43
-0.04
-0.62
-1.26
-1.84
-2.22
-2.26
-1.89
-1.13
-0.12
0.92
1.78
2.27
2.31
1.91
1.17
0.22
-0.77
-1.62
-2.23
-2.52
-2.50
-2.24
-1.82
-1.34
-0.88
-0.55
-0.42
-0.56
-0.98
-1.58
-2.20
-2.65
-2.82
-2.70
-2.37
-2.00
-1.72
-1.62
-1.72
-1.98
-2.37
-2.81
-3.22
-3.50
-3.55
-3.29
-2.69
-1.80
-0.72
0.41
1.46
2.31
2.93
3.37
3.76
4.21
4.78
5.42
5.98
6.26
6.09
5.41
4.32
3.06
1.87
0.96
0.35
-0.02
-0.29
-0.54
-0.80
-1.03
-1.19
-1.30
-1.40
-1.49
-1.54
-1.45
-1.12
-0.54
0.17
0.84
1.35
1.65
1.81
1.93
2.05
2.15
2.13
1.95
1.63
1.26
0.95
0.72
0.52
0.26
-0.15
-0.68
-1.26
-1.83
-2.32
-2.77
-3.21
-3.64
-4.02
-4.24
-4.21
-3.88
-3.31
-2.63
-2.02
-1.65
-1.58
-1.78
-2.14
-2.49
-2.67
-2.57
-2.14
-1.43
-0.55
0.36
1.17
1.81
2.24
2.51
2.66
2.75
2.78
2.68
2.42
1.96
1.37
0.77
0.25
-0.13
-0.38
-0.52
-0.56
-0.47
-0.25
0.05
0.32
0.43
0.33
0.05
-0.27
-0.53
-0.64
-0.61
-0.44
-0.15
0.30
0.92
1.65
2.35
2.85
3.01
2.81
2.37
1.84
1.36
1.04
0.87
0.81
0.77
0.67
0.50
0.27
0.01
-0.27
-0.59
-0.98
-1.47
-2.01
-2.53
-2.91
-3.11
-3.15
-3.11
-3.10
-3.18
-3.34
-3.53
-3.72
-3.90
-4.05
-4.15
-4.17
-4.04
-3.73
-3.22
-2.51
-1.63
-0.65
0.38
1.42
2.43
3.36
4.18
4.82
5.24
5.42
5.40
5.24
5.00
4.72
4.37
3.91
3.30
2.57
1.83
1.18
0.73
0.51
0.47
0.51
0.49
0.34
0.02
-0.38
-0.71
-0.78
-0.48
0.21
1.13
2.06
2.75
3.06
2.94
2.44
1.67
0.74
-0.18
-0.92
-1.33
-1.33
-0.95
-0.36
0.22
0.59
0.64
0.38
-0.11
-0.72
-1.37
-2.05
-2.74
-3.45
-4.14
-4.74
-5.16
-5.34
-5.24
-4.85
-4.27
-3.59
-2.94
-2.41
-2.07
-1.92
-1.90
-1.99
-2.13
-2.27
-2.32
-2.20
-1.77
-0.95
0.24
1.68
3.17
4.49
5.47
6.04
6.23
6.07
5.61
4.89
3.97
2.94
1.94
1.14
0.60
0.35
0.33
0.47
0.67
0.87
1.00
1.01
0.87
0.57
0.20
-0.17
-0.42
-0.51
-0.40
-0.12
0.31
0.81
1.31
1.69
1.82
1.61
1.05
0.27
-0.54
-1.13
-1.36
-1.18
-0.70
-0.11
0.38
0.63
0.57
0.20
-0.46
-1.33
-2.34
-3.35
-4.23
-4.86
-5.19
-5.19
-4.93
-4.51
-4.04
-3.65
-3.39
-3.28
-3.26
-3.24
-3.18
-3.02
-2.75
-2.33
-1.70
-0.78
0.43
1.85
3.29
4.54
5.50
6.17
6.64
6.96
7.07
6.79
5.95
4.55
2.81
1.10
-0.20
-0.87
-0.93
-0.61
-0.20
0.03
-0.03
-0.34
-0.77
-1.17
-1.46
-1.64
-1.74
-1.73
-1.58
-1.18
-0.48
0.43
1.39
2.18
2.62
2.65
2.30
1.71
1.00
0.29
-0.27
-0.57
-0.53
-0.12
0.55
1.27
1.82
2.00
1.75
1.10
0.17
-0.89
-1.98
-3.03
-3.97
-4.75
-5.27
-5.46
-5.31
-4.86
-4.24
-3.64
-3.19
-2.94
-2.86
-2.79
-2.60
-2.18
-1.56
-0.83
-0.14
0.38
0.68
0.84
0.97
1.21
1.63
2.22
2.89
3.52
3.98
4.22
4.25
4.09
3.80
3.47
3.18
2.99
2.93
2.95
2.97
2.87
2.62
2.26
1.87
1.53
1.29
1.10
0.94
0.79
0.72
0.82
1.14
1.65
2.21
2.64
2.79
2.54
1.91
0.96
-0.12
-1.15
-1.93
-2.31
-2.26
-1.88
-1.31
-0.78
-0.42
-0.28
-0.36
-0.59
-0.92
-1.35
-1.87
-2.46
-3.05
-3.53
-3.82
-3.87
-3.68
-3.31
-2.87
-2.50
-2.35
-2.52
-2.95
-3.50
-3.91
-3.95
-3.49
-2.65
-1.70
-0.94
-0.54
-0.47
-0.53
-0.46
-0.08
0.59
1.44
2.28
3.00
3.54
3.89
4.09
4.15
4.05
3.77
3.32
2.76
2.14
1.54
1.02
0.62
0.36
0.23
0.21
0.28
0.41
0.61
0.88
1.24
1.69
2.19
2.62
2.86
2.78
2.36
1.64
0.77
-0.08
-0.77
-1.21
-1.39
-1.32
-1.02
-0.53
0.06
0.59
0.88
0.80
0.33
-0.41
-1.19
-1.83
-2.23
-2.46
-2.64
-2.90
-3.26
-3.63
-3.89
-3.91
-3.67
-3.27
-2.81
-2.41
-2.15
-2.05
-2.06
-2.10
-2.07
-1.87
-1.47
-0.91
-0.30
0.22
0.56
0.77
1.02
1.50
2.27
3.26
4.21
4.82
4.91
4.48
3.73
2.89
2.18
1.70
1.41
1.21
1.03
0.85
0.69
0.58
0.50
0.39
0.16
-0.23
-0.75
-1.25
-1.54
-1.47
-1.00
-0.21
0.70
1.54
2.15
2.50
2.56
2.33
1.81
1.01
0.00
-1.04
-1.87
-2.26
-2.12
-1.51
-0.66
0.12
0.60
0.66
0.36
-0.16
-0.75
-1.32
-1.83
-2.29
-2.71
-3.06
-3.26
-3.25
-3.03
-2.68
-2.34
-2.14
-2.15
-2.34
-2.57
-2.72
-2.70
-2.52
-2.28
-2.09
-1.92
-1.67
-1.13
-0.17
1.24
2.92
4.66
6.20
7.37
8.07
8.26
7.90
6.97
5.52
3.69
1.74
-0.03
-1.37
-2.10
-2.23
-1.87
-1.22
-0.55
-0.08
0.02
-0.27
-0.86
-1.54
-2.11
-2.45
-2.53
-2.41
-2.17
-1.81
-1.27
-0.47
0.56
1.70
2.70
3.32
3.42
3.02
2.27
1.41
0.63
0.06
-0.26
-0.36
-0.27
-0.01
0.34
0.72
1.02
1.11
0.94
0.47
-0.26
-1.18
-2.17
-3.09
-3.83
-4.31
-4.46
-4.30
-3.88
-3.34
-2.87
-2.66
-2.81
-3.32
-4.00
-4.61
-4.89
-4.74
-4.13
-3.17
-1.93
-0.49
1.10
2.74
4.24
5.42
6.14
6.36
6.18
5.74
5.13
4.44
3.70
2.96
2.31
1.82
1.53
1.43
1.42
1.40
1.31
1.11
0.85
0.55
0.25
-0.02
-0.30
-0.60
-0.91
-1.19
-1.31
-1.15
-0.63
0.22
1.22
2.09
2.57
2.49
1.87
0.87
-0.24
-1.18
-1.75
-1.83
-1.46
-0.79
-0.01
0.65
1.00
0.96
0.53
-0.20
-1.07
-1.93
-2.64
-3.13
-3.35
-3.37
-3.23
-3.05
-2.90
-2.81
-2.80
-2.84
-2.94
-3.12
-3.38
-3.69
-3.97
-4.11
-3.98
-3.54
-2.80
-1.88
-0.88
0.10
1.06
2.00
2.96
3.91
4.79
5.49
5.92
6.04
5.84
5.40
4.79
4.12
3.46
2.89
2.43
2.10
1.87
1.69
1.50
1.24
0.95
0.68
0.53
0.52
0.64
0.81
0.96
1.12
1.34
1.65
2.02
2.27
2.21
1.71
0.81
-0.26
-1.21
-1.80
-1.94
-1.74
-1.40
-1.12
-1.04
-1.18
-1.49
-1.86
-2.22
-2.55
-2.86
-3.18
-3.49
-3.75
-3.86
-3.78
-3.51
-3.13
-2.78
-2.55
-2.46
-2.48
-2.55
-2.63
-2.72
-2.85
-3.02
-3.18
-3.24
-3.11
-2.70
-2.02
-1.09
-0.01
1.15
2.35
3.55
4.75
5.90
6.88
7.52
7.65
7.16
6.10
4.66
3.12
1.77
0.79
0.22
-0.04
-0.11
-0.15
-0.22
-0.31
-0.39
-0.40
-0.33
-0.23
-0.17
-0.19
-0.28
-0.37
-0.29
0.03
0.60
1.29
1.90
2.22
2.17
1.77
1.16
0.52
0.01
-0.27
-0.31
-0.16
0.07
0.27
0.34
0.22
-0.07
-0.47
-0.91
-1.32
-1.69
-2.02
-2.36
-2.72
-3.09
-3.43
-3.65
-3.70
-3.53
-3.18
-2.73
-2.28
-1.94
-1.79
-1.83
-2.02
-2.27
-2.44
-2.43
-2.11
-1.47
-0.55
0.51
1.55
2.44
3.11
3.60
3.93
4.14
4.21
4.10
3.78
3.23
2.54
1.81
1.15
0.66
0.37
0.26
0.24
0.20
0.08
-0.13
-0.38
-0.60
-0.74
-0.76
-0.70
-0.54
-0.29
0.09
0.59
1.18
1.80
2.37
2.83
3.09
3.08
2.71
1.97
0.93
-0.23
-1.29
-2.06
-2.46
-2.52
-2.33
-2.02
-1.65
-1.30
-1.02
-0.91
-1.07
-1.51
-2.17
-2.87
-3.42
-3.68
-3.63
-3.38
-3.07
-2.83
-2.73
-2.76
-2.88
-3.00
-3.02
-2.87
-2.46
-1.79
-0.89
0.10
1.05
1.81
2.33
2.65
2.86
3.12
3.53
4.10
4.71
5.18
5.31
4.99
4.24
3.20
2.05
0.99
0.17
-0.33
-0.48
-0.31
0.14
0.73
1.30
1.68
1.73
1.39
0.70
-0.17
-0.96
-1.37
-1.16
-0.27
1.15
2.68
3.86
4.34
4.07
3.24
2.22
1.32
0.70
0.31
0.05
-0.18
-0.37
-0.49
-0.49
-0.39
-0.32
-0.40
-0.74
-1.33
-2.03
-2.67
-3.08
-3.24
-3.25
-3.27
-3.42
-3.74
-4.08
-4.26
-4.13
-3.66
-3.02
-2.41
-2.07
-2.07
-2.36
-2.75
-3.00
-2.88
-2.26
-1.17
0.21
1.64
2.90
3.85
4.44
4.70
4.62
4.25
3.63
2.88
2.20
1.79
1.75
2.01
2.37
2.56
2.43
1.93
1.19
0.40
-0.24
-0.63
-0.75
-0.66
-0.46
-0.19
0.11
0.45
0.85
1.30
1.74
2.11
2.30
2.24
1.90
1.36
0.73
0.19
-0.16
-0.29
-0.28
-0.30
-0.46
-0.82
-1.32
-1.81
-2.16
-2.31
-2.28
-2.21
-2.22
-2.38
-2.66
-3.01
-3.33
-3.55
-3.63
-3.55
-3.33
-2.99
-2.58
-2.21
-1.93
-1.80
-1.79
-1.82
-1.82
-1.74
-1.64
-1.54
-1.46
-1.34
-1.06
-0.52
0.29
1.28
2.29
3.18
3.83
4.24
4.42
4.38
4.10
3.55
2.74
1.76
0.78
-0.03
-0.57
-0.87
-1.01
-1.10
-1.17
-1.14
-0.90
-0.32
0.59
1.68
2.76
3.63
4.18
4.41
4.37
4.15
3.74
3.13
2.30
1.29
0.27
-0.56
-1.03
-1.07
-0.79
-0.39
-0.06
0.06
-0.03
-0.24
-0.52
-0.80
-1.12
-1.54
-2.06
-2.65
-3.19
-3.59
-3.77
-3.73
-3.51
-3.24
-3.00
-2.88
-2.90
-3.03
-3.17
-3.22
-3.12
-2.85
-2.42
-1.91
-1.38
-0.85
-0.29
0.40
1.28
2.40
3.72
5.11
6.40
7.39
7.89
7.78
7.00
5.65
3.96
2.23
0.77
-0.23
-0.69
-0.72
-0.48
-0.16
0.08
0.15
0.02
-0.32
-0.86
-1.53
-2.24
-2.80
-3.01
-2.73
-1.92
-0.74
0.53
1.53
1.97
1.77
1.04
0.09
-0.72
-1.06
-0.75
0.19
1.52
2.88
3.86
4.17
3.74
2.72
1.42
0.14
-0.94
-1.82
-2.56
-3.22
-3.78
-4.13
-4.18
-3.93
-3.53
-3.19
-3.03
-3.09
-3.25
-3.33
-3.21
-2.88
-2.47
-2.13
-1.96
-1.90
-1.75
-1.33
-0.55
0.53
1.74
2.89
3.87
4.64
5.22
5.60
5.71
5.45
4.77
3.76
2.64
1.65
1.00
0.75
0.77
0.88
0.92
0.79
0.51
0.19
-0.13
-0.44
-0.77
-1.16
-1.59
-1.96
-2.15
-2.04
-1.57
-0.80
0.13
1.04
1.74
2.09
2.01
1.53
0.79
-0.00
-0.64
-0.95
-0.89
-0.49
0.10
0.73
1.23
1.48
1.38
0.94
0.22
-0.63
-1.43
-2.01
-2.30
-2.35
-2.28
-2.24
-2.31
-2.46
-2.62
-2.68
-2.61
-2.44
-2.26
-2.14
-2.10
-2.10
-2.06
-1.91
-1.61
-1.17
-0.65
-0.11
0.39
0.81
1.15
1.42
1.62
1.74
1.78
1.76
1.73
1.77
1.87
1.96
1.92
1.69
1.26
0.75
0.29
-0.05
-0.27
-0.41
-0.54
-0.66
-0.73
-0.71
-0.60
-0.44
-0.25
-0.05
0.22
0.57
0.98
1.34
1.52
1.46
1.22
0.94
0.81
0.90
1.22
1.62
1.93
2.06
1.98
1.76
1.53
1.35
1.23
1.08
0.82
0.38
-0.24
-0.98
-1.70
-2.28
-2.62
-2.71
-2.60
-2.40
-2.24
-2.18
-2.23
-2.32
-2.38
-2.39
-2.42
-2.54
-2.79
-3.11
-3.33
-3.29
-2.87
-2.10
-1.10
-0.05
0.90
1.74
2.50
3.23
3.90
4.42
4.62
4.40
3.75
2.80
1.79
0.90
0.28
-0.13
-0.42
-0.71
-1.04
-1.33
-1.45
-1.30
-0.90
-0.37
0.11
0.39
0.44
0.38
0.39
0.64
1.19
1.96
2.76
3.35
3.57
3.38
2.86
2.17
1.48
0.90
0.44
0.10
-0.18
-0.41
-0.56
-0.64
-0.63
-0.57
-0.53
-0.62
-0.90
-1.40
-2.05
-2.74
-3.32
-3.66
-3.75
-3.63
-3.42
-3.18
-2.95
-2.72
-2.49
-2.30
-2.21
-2.25
-2.36
-2.45
-2.36
-2.05
-1.49
-0.75
0.10
0.99
1.85
2.60
3.16
3.46
3.45
3.14
2.53
1.66
0.54
-0.82
-2.33
-3.83
-5.10
-5.95
-6.34
-6.36
-6.21
-6.12
-6.20
-6.51
-7.00
-7.59
-8.27
-9.03
-9.86
-10.72
-11.59
-12.46
-13.35
-14.27
-15.23
-16.22
-17.26
-18.49
-20.18
-22.63
-26.04
-30.33
-35.09
-39.73
-43.73
-46.90
-49.54
-52.30
-55.89
-60.78
-66.88
-73.62
-80.13
-85.58
-89.52
-92.07
-93.94
-96.36
-100.65
-107.77
-117.55
-128.23
-136.44
-137.84
-128.17
-104.45
-65.91
-14.53
45.12
106.53
162.54
206.95
236.04
249.48
250.23
243.36
234.16
226.54
222.28
221.40
223.05
226.26
229.92
232.34
231.08
223.49
208.00
185.22
157.92
129.54
102.33
76.05
48.46
17.31
-17.44
-52.75
-83.47
-104.87
-114.89
-114.97
-108.98
-100.97
-93.39
-86.54
-79.48
-71.42
-62.81
-55.20
-50.36
-49.25
-51.42
-55.18
-58.42
-59.48
-57.83
-54.06
-49.46
-45.24
-42.05
-39.78
-37.80
-35.47
-32.57
-29.41
-26.66
-24.91
-24.40
-24.82
-25.52
-25.72
-24.92
-23.03
-20.39
-17.57
-15.11
-13.31
-12.21
-11.62
-11.29
-10.99
-10.59
-10.00
-9.16
-7.99
-6.46
-4.62
-2.63
-0.72
0.90
2.10
2.87
3.26
3.36
3.24
2.94
2.54
2.11
1.74
1.47
1.25
1.00
0.63
0.11
-0.51
-1.09
-1.54
-1.76
-1.78
-1.66
-1.48
-1.31
-1.16
-1.01
-0.82
-0.53
-0.11
0.47
1.17
1.92
2.59
3.06
3.25
3.10
2.63
1.93
1.11
0.34
-0.23
-0.47
-0.34
0.11
0.75
1.39
1.83
1.91
1.56
0.76
-0.42
-1.84
-3.34
-4.72
-5.85
-6.61
-7.01
-7.10
-6.97
-6.70
-6.36
-5.98
-5.56
-5.16
-4.84
-4.70
-4.82
-5.21
-5.75
-6.17
-6.11
-5.21
-3.23
-0.21
3.49
7.25
10.38
12.35
12.94
12.28
10.78
8.88
6.96
5.21
3.68
2.40
1.39
0.73
0.41
0.32
0.32
0.20
-0.13
-0.64
-1.18
-1.59
-1.80
-1.83
-1.70
-1.48
-1.11
-0.55
0.24
1.19
2.13
2.84
3.14
2.99
2.52
1.92
1.40
1.05
0.82
0.61
0.35
0.02
-0.29
-0.46
-0.48
-0.40
-0.37
-0.54
-0.98
-1.63
-2.33
-2.90
-3.20
-3.21
-3.02
-2.79
-2.65
-2.67
-2.79
-2.90
-2.90
-2.75
-2.55
-2.40
-2.39
-2.47
-2.55
-2.45
-2.05
-1.31
-0.23
1.09
2.54
3.98
5.25
6.17
6.57
6.39
5.64
4.50
3.17
1.89
0.82
0.05
-0.44
-0.71
-0.86
-0.97
-1.08
-1.19
-1.30
-1.40
-1.50
-1.62
-1.78
-1.95
-2.10
-2.13
-1.94
-1.44
-0.62
0.44
1.55
2.49
3.04
3.08
2.64
1.91
1.20
0.78
0.79
1.17
1.74
2.25
2.55
2.60
2.46
2.20
1.85
1.35
0.68
-0.15
-1.02
-1.77
-2.27
-2.51
-2.59
-2.67
-2.86
-3.19
-3.60
-3.97
-4.18
-4.22
-4.11
-3.96
-3.86
-3.84
-3.84
-3.74
-3.44
-2.90
-2.20
-1.50
-0.99
-0.78
-0.90
-1.22
-1.62
-1.97
-2.24
-2.51
-2.86
-3.42
-4.21
-5.20
-6.28
-7.30
-8.12
-8.68
-9.02
-9.25
-9.58
-10.22
-11.30
-12.80
-14.57
-16.32
-17.79
-18.78
-19.33
-19.73
-20.39
-21.79
-24.20
-27.62
-31.63
-35.61
-38.92
-41.29
-42.94
-44.60
-47.13
-51.00
-55.85
-60.52
-63.35
-62.82
-58.16
-49.63
-38.39
-26.09
-14.31
-4.17
3.80
9.59
13.35
15.16
14.92
12.41
7.34
-0.50
-10.98
-23.27
-35.43
-44.21
-45.41
-34.78
-9.39
30.94
83.01
140.89
197.71
247.66
287.23
315.14
331.14
334.75
324.81
300.04
260.30
207.61
146.45
82.99
23.65
-26.31
-63.89
-88.51
-101.65
-106.00
-104.54
-99.83
-93.61
-86.93
-80.45
-74.82
-70.64
-68.18
-67.12
-66.49
-65.03
-61.82
-56.66
-50.17
-43.48
-37.76
-33.78
-31.76
-31.34
-31.81
-32.34
-32.25
-31.18
-29.19
-26.67
-24.16
-22.03
-20.39
-19.06
-17.70
-16.09
-14.28
-12.57
-11.36
-10.86
-10.98
-11.33
-11.48
-11.16
-10.38
-9.37
-8.44
-7.74
-7.29
-6.98
-6.72
-6.50
-6.37
-6.40
-6.57
-6.76
-6.81
-6.54
-5.82
-4.59
-2.82
-0.62
1.84
4.26
6.31
7.70
8.31
8.16
7.40
6.27
5.00
3.81
2.87
2.25
1.98
1.96
2.02
2.01
1.84
1.52
1.10
0.67
0.26
-0.19
-0.71
-1.29
-1.82
-2.09
-1.89
-1.13
0.15
1.72
3.23
4.35
4.81
4.52
3.57
2.20
0.74
-0.53
-1.35
-1.63
-1.42
-0.91
-0.30
0.20
0.44
0.39
0.05
-0.53
-1.30
-2.19
-3.13
-3.99
-4.63
-4.94
-4.91
-4.61
-4.22
-3.90
-3.75
-3.79
-3.96
-4.19
-4.42
-4.61
-4.74
-4.76
-4.59
-4.14
-3.34
-2.21
-0.80
0.77
2.32
3.74
4.92
5.84
6.50
6.93
7.16
7.17
6.92
6.39
5.62
4.72
3.84
3.08
2.52
2.11
1.78
1.46
1.11
0.78
0.50
0.33
0.30
0.38
0.54
0.73
0.87
0.94
0.90
0.78
0.63
0.49
0.40
0.35
0.30
0.24
0.15
0.05
-0.07
-0.22
-0.46
-0.82
-1.23
-1.59
-1.72
-1.53
-1.02
-0.33
0.27
0.57
0.45
-0.04
-0.74
-1.45
-2.01
-2.39
-2.62
-2.76
-2.87
-2.95
-3.00
-3.02
-3.03
-3.00
-2.90
-2.67
-2.30
-1.84
-1.40
-1.06
-0.86
-0.75
-0.65
-0.52
-0.37
-0.26
-0.20
-0.17
-0.08
0.13
0.44
0.76
0.94
0.89
0.62
0.24
-0.12
-0.36
-0.42
-0.29
0.04
0.59
1.37
2.29
3.20
3.89
4.23
4.19
3.88
3.47
3.13
2.93
2.85
2.83
2.81
2.72
2.51
2.15
1.60
0.89
0.11
-0.58
-1.06
-1.23
-1.11
-0.81
-0.52
-0.39
-0.53
-0.96
-1.63
-2.37
-3.04
-3.52
-3.75
-3.76
-3.63
-3.42
-3.16
-2.87
-2.56
-2.30
-2.17
-2.20
-2.37
-2.54
-2.57
-2.33
-1.81
-1.12
-0.43
0.09
0.38
0.51
0.61
0.81
1.18
1.67
2.10
2.34
2.28
1.95
1.47
0.97
0.57
0.28
0.11
0.07
0.17
0.40
0.71
1.01
1.21
1.26
1.24
1.26
1.46
1.92
2.59
3.39
4.14
4.70
4.95
4.85
4.41
3.71
2.87
2.00
1.19
0.49
-0.08
-0.51
-0.77
-0.84
-0.74
-0.54
-0.35
-0.27
-0.38
-0.69
-1.13
-1.62
-2.08
-2.44
-2.69
-2.84
-2.91
-2.94
-2.97
-3.02
-3.14
-3.31
-3.53
-3.75
-3.93
-3.99
-3.88
-3.57
-3.07
-2.43
-1.75
-1.15
-0.71
-0.43
-0.22
0.08
0.59
1.33
2.19
2.95
3.40
3.43
3.09
2.56
2.05
1.68
1.48
1.39
1.31
1.21
1.11
1.07
1.12
1.26
1.47
1.70
1.92
2.10
2.19
2.14
1.93
1.57
1.14
0.77
0.64
0.84
1.37
2.08
2.70
2.94
2.64
1.81
0.64
-0.53
-1.37
-1.71
-1.56
-1.08
-0.49
0.02
0.41
0.69
0.88
0.99
0.95
0.71
0.26
-0.35
-1.08
-1.87
-2.70
-3.50
-4.18
-4.59
-4.63
-4.27
-3.64
-2.93
-2.36
-2.09
-2.13
-2.37
-2.62
-2.67
-2.35
-1.62
-0.54
0.74
1.99
3.00
3.63
3.85
3.72
3.36
2.86
2.29
1.68
1.04
0.42
-0.10
-0.43
-0.52
-0.42
-0.24
-0.12
-0.15
-0.28
-0.38
-0.30
0.04
0.59
1.17
1.60
1.72
1.52
1.12
0.69
0.43
0.48
0.85
1.44
2.05
2.47
2.54
2.25
1.66
0.93
0.16
-0.55
-1.15
-1.59
-1.81
-1.72
-1.32
-0.71
-0.07
0.36
0.42
0.08
-0.56
-1.33
-2.09
-2.73
-3.18
-3.40
-3.37
-3.12
-2.73
-2.33
-2.06
-2.02
-2.22
-2.59
-2.99
-3.26
-3.23
-2.80
-1.93
-0.63
0.97
2.71
4.37
5.71
6.54
6.73
6.26
5.20
3.71
2.03
0.41
-0.88
-1.64
-1.78
-1.38
-0.65
0.13
0.71
0.93
0.82
0.47
0.03
-0.41
-0.81
-1.15
-1.44
-1.64
-1.73
-1.69
-1.50
-1.19
-0.76
-0.23
0.32
0.83
1.18
1.26
1.05
0.62
0.12
-0.27
-0.40
-0.23
0.18
0.66
1.04
1.21
1.12
0.84
0.48
0.11
-0.22
-0.50
-0.77
-1.00
-1.15
-1.16
-1.02
-0.77
-0.53
-0.41
-0.50
-0.85
-1.40
-2.04
-2.62
-2.97
-2.95
-2.48
-1.60
-0.43
0.81
1.89
2.63
2.98
3.01
2.85
2.65
2.49
2.34
2.09
1.62
0.90
0.01
-0.84
-1.43
-1.56
-1.23
-0.59
0.13
0.70
0.98
0.98
0.78
0.47
0.11
-0.28
-0.71
-1.15
-1.52
-1.71
-1.61
-1.18
-0.49
0.30
1.06
1.67
2.10
2.38
2.54
2.56
2.44
2.21
1.96
1.87
2.07
2.60
3.30
3.96
4.30
4.19
3.63
2.72
1.62
0.44
-0.73
-1.89
-3.01
-4.09
-5.12
-6.04
-6.79
-7.24
-7.32
-6.99
-6.35
-5.62
-5.04
-4.78
-4.86
-5.12
-5.32
-5.16
-4.38
-2.81
-0.41
2.69
6.14
9.41
11.95
13.33
13.44
12.50
10.93
9.16
7.44
5.79
4.10
2.28
0.35
-1.51
-3.13
-4.42
-5.42
-6.25
-7.03
-7.80
-8.51
-9.06
-9.37
-9.32
-8.84
-7.81
-6.19
-3.99
-1.40
1.30
3.74
5.57
6.53
6.55
5.69
4.18
2.34
0.55
-0.81
-1.46
-1.29
-0.38
1.00
2.50
3.73
4.41
4.39
3.70
2.45
0.89
-0.72
-2.15
-3.19
-3.77
-3.90
-3.66
-3.17
-2.56
-1.94
-1.42
-1.11
-1.06
-1.28
-1.65
-1.99
-2.12
-1.92
-1.42
-0.74
-0.05
0.54
1.01
1.42
1.82
2.21
2.49
2.60
2.49
2.23
1.92
1.71
1.66
1.76
1.94
2.08
2.04
1.74
1.19
0.44
-0.35
-1.04
-1.52
-1.73
-1.71
-1.50
-1.16
-0.73
-0.22
0.32
0.83
1.22
1.43
1.45
1.29
1.01
0.63
0.13
-0.46
-1.07
-1.54
-1.66
-1.26
-0.35
0.87
2.04
2.78
2.84
2.20
1.01
-0.50
-2.08
-3.54
-4.71
-5.50
-5.84
-5.70
-5.18
-4.44
-3.72
-3.17
-2.92
-2.93
-3.13
-3.40
-3.62
-3.71
-3.60
-3.29
-2.81
-2.27
-1.73
-1.26
-0.80
-0.24
0.58
1.71
3.12
4.62
5.94
6.88
7.32
7.29
6.94
6.41
5.78
5.09
4.33
3.55
2.84
2.29
1.97
1.87
1.88
1.88
1.75
1.43
0.96
0.41
-0.10
-0.41
-0.40
0.00
0.75
1.69
2.60
3.25
3.49
3.30
2.76
2.03
1.27
0.62
0.20
0.02
0.07
0.25
0.47
0.62
0.62
0.47
0.16
-0.29
-0.86
-1.54
-2.30
-3.10
-3.85
-4.44
-4.79
-4.82
-4.56
-4.10
-3.60
-3.25
-3.16
-3.36
-3.78
-4.26
-4.64
-4.77
-4.56
-3.99
-3.04
-1.76
-0.24
1.39
2.96
4.28
5.22
5.74
5.84
5.57
4.94
3.97
2.70
1.28
-0.05
-1.01
-1.40
-1.18
-0.51
0.33
1.08
1.60
1.86
1.91
1.83
1.68
1.46
1.17
0.86
0.62
0.57
0.81
1.41
2.28
3.23
4.01
4.35
4.12
3.35
2.24
1.08
0.13
-0.44
-0.60
-0.46
-0.19
0.01
-0.05
-0.44
-1.12
-1.94
-2.71
-3.27
-3.55
-3.64
-3.68
-3.79
-4.03
-4.36
-4.69
-4.93
-5.06
-5.08
-4.97
-4.71
-4.29
-3.75
-3.22
-2.84
-2.73
-2.85
-3.04
-3.04
-2.62
-1.70
-0.36
1.23
2.85
4.36
5.65
6.67
7.36
7.63
7.45
6.85
5.95
4.90
3.90
3.04
2.40
1.96
1.65
1.41
1.16
0.87
0.50
0.08
-0.37
-0.82
-1.23
-1.60
-1.90
-2.05
-1.92
-1.41
-0.50
0.65
1.73
2.39
2.39
1.73
0.62
-0.54
-1.42
-1.79
-1.67
-1.19
-0.56
0.05
0.54
0.86
0.98
0.85
0.44
-0.24
-1.11
-2.00
-2.78
-3.29
-3.50
-3.46
-3.29
-3.11
-3.01
-2.98
-2.98
-2.93
-2.77
-2.49
-2.19
-2.01
-2.08
-2.40
-2.83
-3.14
-3.11
-2.62
-1.75
-0.67
0.44
1.48
2.49
3.56
4.72
5.87
6.78
7.21
7.02
6.23
5.03
3.66
2.38
1.33
0.60
0.18
0.02
0.03
0.11
0.17
0.16
0.05
-0.08
-0.19
-0.23
-0.24
-0.24
-0.28
-0.34
-0.36
-0.29
-0.11
0.14
0.39
0.52
0.47
0.22
-0.18
-0.61
-0.91
-0.96
-0.70
-0.19
0.42
0.92
1.18
1.14
0.88
0.50
0.10
-0.31
-0.77
-1.31
-1.92
-2.51
-2.97
-3.21
-3.19
-2.97
-2.67
-2.42
-2.29
-2.29
-2.35
-2.40
-2.41
-2.36
-2.29
-2.20
-2.03
-1.73
-1.24
-0.56
0.21
0.98
1.65
2.22
2.69
3.10
3.43
3.60
3.55
3.22
2.68
2.06
1.52
1.18
1.06
1.06
1.05
0.93
0.66
0.31
-0.01
-0.24
-0.43
-0.64
-0.98
-1.49
-2.06
-2.52
-2.65
-2.30
-1.52
-0.48
0.53
1.22
1.45
1.27
0.85
0.41
0.06
-0.24
-0.63
-1.24
-2.01
-2.75
-3.14
-2.94
-2.16
-1.04
0.02
0.68
0.83
0.61
0.32
0.25
0.51
1.06
1.72
2.33
2.81
3.15
3.35
3.36
3.09
2.47
1.52
0.42
-0.61
-1.34
-1.63
-1.49
-1.02
-0.40
0.25
0.87
1.45
1.98
2.43
2.72
2.73
2.42
1.85
1.18
0.61
0.30
0.28
0.44
0.62
0.69
0.57
0.30
-0.08
-0.51
-0.96
-1.39
-1.75
-1.97
-1.99
-1.81
-1.45
-0.96
-0.40
0.20
0.80
1.36
1.79
2.02
1.99
1.71
1.22
0.59
-0.03
-0.54
-0.82
-0.83
-0.63
-0.32
-0.04
0.09
0.03
-0.24
-0.68
-1.25
-1.90
-2.56
-3.16
-3.61
-3.88
-3.98
-3.98
-3.93
-3.88
-3.84
-3.80
-3.76
-3.73
-3.73
-3.72
-3.67
-3.51
-3.23
-2.80
-2.23
-1.46
-0.44
0.88
2.52
4.34
6.12
7.56
8.38
8.41
7.69
6.40
4.85
3.37
2.18
1.35
0.86
0.59
0.48
0.46
0.51
0.57
0.56
0.39
0.04
-0.42
-0.84
-1.04
-0.94
-0.58
-0.03
0.56
1.12
1.60
1.98
2.23
2.26
2.02
1.50
0.80
0.05
-0.58
-0.96
-1.02
-0.82
-0.43
0.01
0.35
0.49
0.38
0.01
-0.52
-1.11
-1.63
-2.02
-2.27
-2.42
-2.53
-2.65
-2.78
-2.88
-2.91
-2.82
-2.61
-2.36
-2.15
-2.06
-2.13
-2.30
-2.42
-2.35
-1.97
-1.27
-0.38
0.54
1.31
1.85
2.16
2.36
2.55
2.79
3.04
3.17
3.08
2.70
2.07
1.32
0.63
0.13
-0.13
-0.18
-0.11
-0.02
0.04
0.04
0.02
0.02
0.04
0.07
0.05
-0.05
-0.19
-0.26
-0.12
0.33
1.05
1.88
2.60
2.99
2.95
2.51
1.85
1.16
0.62
0.34
0.32
0.52
0.81
1.07
1.18
1.06
0.73
0.29
-0.19
-0.61
-0.98
-1.35
-1.77
-2.21
-2.64
-2.96
-3.14
-3.20
-3.20
-3.21
-3.26
-3.33
-3.37
-3.35
-3.27
-3.17
-3.09
-3.06
-3.07
-3.08
-3.01
-2.76
-2.27
-1.47
-0.36
1.00
2.49
3.94
5.18
6.07
6.52
6.48
5.99
5.13
4.03
2.85
1.72
0.78
0.10
-0.30
-0.43
-0.35
-0.17
0.03
0.18
0.24
0.22
0.15
0.09
0.04
0.03
0.07
0.18
0.42
0.83
1.38
1.97
2.43
2.60
2.40
1.87
1.14
0.35
-0.38
-0.96
-1.36
-1.54
-1.49
-1.22
-0.80
-0.40
-0.17
-0.23
-0.60
-1.18
-1.87
-2.53
-3.11
-3.54
-3.78
-3.81
-3.63
-3.27
-2.84
-2.47
-2.28
-2.34
-2.63
-3.04
-3.42
-3.61
-3.51
-3.11
-2.48
-1.71
-0.86
0.09
1.17
2.43
3.81
5.17
6.25
6.85
6.87
6.36
5.50
4.51
3.57
2.75
2.06
1.47
0.98
0.61
0.38
0.26
0.20
0.09
-0.12
-0.49
-0.95
-1.42
-1.75
-1.84
-1.63
-1.12
-0.35
0.59
1.61
2.57
3.36
3.82
3.83
3.35
2.48
1.44
0.52
-0.07
-0.22
-0.04
0.28
0.51
0.51
0.26
-0.20
-0.78
-1.40
-2.02
-2.62
-3.15
-3.54
-3.78
-3.88
-3.90
-3.91
-3.97
-4.06
-4.17
-4.29
-4.44
-4.64
-4.84
-4.96
-4.85
-4.42
-3.70
-2.84
-2.06
-1.52
-1.22
-0.97
-0.45
0.56
2.08
3.91
5.68
7.03
7.74
7.79
7.26
6.35
5.20
3.99
2.86
1.97
1.45
1.32
1.45
1.66
1.74
1.57
1.13
0.54
-0.04
-0.47
-0.61
-0.39
0.20
1.08
2.06
2.87
3.25
3.06
2.31
1.20
0.04
-0.84
-1.23
-1.07
-0.49
0.24
0.86
1.23
1.29
1.13
0.84
0.49
0.07
-0.43
-1.03
-1.68
-2.31
-2.85
-3.25
-3.52
-3.67
-3.72
-3.66
-3.51
-3.31
-3.08
-2.89
-2.77
-2.74
-2.80
-2.91
-3.02
-3.02
-2.83
-2.42
-1.81
-1.10
-0.40
0.25
0.85
1.47
2.15
2.86
3.52
4.01
4.22
4.10
3.70
3.14
2.57
2.09
1.75
1.52
1.34
1.12
0.86
0.60
0.44
0.42
0.50
0.55
0.47
0.22
-0.07
-0.24
-0.11
0.33
0.96
1.57
1.92
1.91
1.56
1.02
0.45
0.00
-0.27
-0.41
-0.48
-0.55
-0.64
-0.71
-0.69
-0.55
-0.33
-0.17
-0.23
-0.60
-1.24
-2.00
-2.63
-2.96
-2.96
-2.72
-2.41
-2.23
-2.25
-2.46
-2.75
-2.98
-3.08
-3.04
-2.92
-2.79
-2.69
-2.58
-2.41
-2.08
-1.58
-0.92
-0.14
0.72
1.66
2.67
3.74
4.76
5.58
6.05
6.06
5.64
4.93
4.08
3.24
2.44
1.68
0.94
0.26
-0.32
-0.74
-0.98
-1.11
-1.22
-1.38
-1.59
-1.74
-1.67
-1.22
-0.35
0.88
2.24
3.50
4.37
4.68
4.36
3.50
2.27
0.96
-0.17
-0.92
-1.19
-1.03
-0.59
-0.09
0.24
0.25
-0.09
-0.72
-1.46
-2.16
-2.75
-3.22
-3.64
-4.05
-4.42
-4.66
-4.67
-4.43
-3.99
-3.51
-3.13
-2.91
-2.81
-2.74
-2.63
-2.49
-2.37
-2.27
-2.18
-1.95
-1.42
-0.52
0.76
2.27
3.77
5.04
5.94
6.40
6.48
6.26
5.81
5.19
4.43
3.54
2.56
1.54
0.56
-0.27
-0.87
-1.22
-1.31
-1.23
-1.02
-0.76
-0.49
-0.21
0.06
0.29
0.48
0.62
0.70
0.75
0.80
0.89
1.04
1.26
1.48
1.60
1.47
0.99
0.19
-0.77
-1.61
-2.10
-2.12
-1.72
-1.11
-0.51
-0.08
0.11
0.04
-0.25
-0.75
-1.41
-2.13
-2.79
-3.23
-3.37
-3.19
-2.80
-2.32
-1.90
-1.63
-1.55
-1.63
-1.83
-2.03
-2.17
-2.19
-2.06
-1.81
-1.45
-1.01
-0.46
0.18
0.89
1.60
2.26
2.81
3.25
3.63
3.98
4.27
4.39
4.22
3.68
2.80
1.78
0.85
0.21
-0.08
-0.09
0.01
0.07
0.06
0.03
0.08
0.26
0.53
0.77
0.87
0.79
0.60
0.43
0.43
0.63
0.99
1.37
1.62
1.66
1.48
1.14
0.71
0.24
-0.20
-0.60
-0.88
-1.00
-0.88
-0.55
-0.07
0.36
0.57
0.44
-0.01
-0.64
-1.28
-1.78
-2.12
-2.37
-2.60
-2.79
-2.90
-2.85
-2.62
-2.35
-2.16
-2.17
-2.32
-2.48
-2.44
-2.12
-1.56
-0.94
-0.41
-0.05
0.17
0.36
0.62
0.99
1.44
1.89
2.25
2.49
2.57
2.46
2.12
1.53
0.76
-0.07
-0.77
-1.19
-1.28
-1.09
-0.76
-0.41
-0.10
0.15
0.41
0.69
0.96
1.16
1.21
1.09
0.88
0.71
0.75
1.09
1.71
2.44
3.05
3.32
3.17
2.64
1.89
1.13
0.50
0.07
-0.17
-0.24
-0.19
-0.09
0.00
-0.01
-0.18
-0.51
-0.95
-1.41
-1.82
-2.15
-2.40
-2.57
-2.67
-2.67
-2.55
-2.32
-2.02
-1.77
-1.65
-1.73
-1.99
-2.33
-2.63
-2.77
-2.67
-2.34
-1.81
-1.18
-0.50
0.14
0.66
1.03
1.25
1.40
1.62
1.99
2.51
3.01
3.29
3.15
2.59
1.74
0.87
0.22
-0.08
-0.06
0.17
0.47
0.75
0.96
1.10
1.16
1.09
0.89
0.60
0.36
0.33
0.64
1.32
2.23
3.17
3.90
4.26
4.19
3.76
3.10
2.35
1.61
0.96
0.44
0.06
-0.21
-0.39
-0.51
-0.61
-0.74
-0.93
-1.21
-1.61
-2.14
-2.73
-3.32
-3.79
-4.09
-4.21
-4.21
-4.22
-4.29
-4.44
-4.61
-4.72
-4.68
-4.48
-4.15
-3.73
-3.23
-2.66
-1.99
-1.26
-0.51
0.20
0.80
1.32
1.80
2.33
2.94
3.61
4.23
4.67
4.82
4.63
4.17
3.57
2.95
2.42
2.02
1.73
1.54
1.40
1.31
1.23
1.10
0.88
0.53
0.08
-0.37
-0.73
-0.86
-0.69
-0.19
0.58
1.51
2.43
3.14
3.47
3.31
2.71
1.83
0.94
0.28
-0.00
0.10
0.48
0.96
1.33
1.47
1.32
0.89
0.22
-0.61
-1.49
-2.33
-3.03
-3.52
-3.75
-3.75
-3.57
-3.31
-3.08
-2.96
-2.97
-3.10
-3.28
-3.44
-3.51
-3.46
-3.29
-2.98
-2.54
-1.98
-1.35
-0.73
-0.20
0.19
0.50
0.85
1.32
1.93
2.53
2.95
2.99
2.64
2.02
1.37
0.90
0.70
0.68
0.69
0.57
0.28
-0.10
-0.40
-0.49
-0.32
0.03
0.47
0.89
1.26
1.61
2.01
2.52
3.10
3.66
4.02
4.02
3.61
2.80
1.74
0.61
-0.40
-1.16
-1.64
-1.85
-1.85
-1.70
-1.46
-1.19
-0.95
-0.77
-0.71
-0.80
-1.10
-1.62
-2.32
-3.05
-3.64
-3.93
-3.83
-3.36
-2.69
-2.00
-1.51
-1.31
-1.42
-1.78
-2.26
-2.70
-2.92
-2.73
-2.00
-0.71
0.98
2.76
4.29
5.27
5.61
5.39
4.84
4.18
3.55
2.96
2.38
1.75
1.09
0.48
-0.01
-0.35
-0.57
-0.73
-0.87
-1.00
-1.11
-1.17
-1.14
-1.00
-0.77
-0.47
-0.18
0.03
0.10
0.04
-0.07
-0.13
-0.00
0.35
0.91
1.54
2.09
2.39
2.36
2.01
1.45
0.81
0.25
-0.14
-0.30
-0.26
-0.09
0.13
0.30
0.37
0.31
0.10
-0.23
-0.65
-1.10
-1.54
-1.92
-2.21
-2.37
-2.43
-2.42
-2.37
-2.33
-2.31
-2.28
-2.22
-2.09
-1.87
-1.58
-1.21
-0.73
-0.10
0.66
1.43
2.06
2.35
2.26
1.88
1.46
1.23
1.29
1.56
1.80
1.79
1.45
0.87
0.28
-0.17
-0.43
-0.60
-0.79
-1.06
-1.33
-1.48
-1.42
-1.17
-0.89
-0.75
-0.85
-1.16
-1.49
-1.65
-1.49
-0.96
-0.17
0.73
1.55
2.12
2.33
2.17
1.72
1.15
0.69
0.54
0.79
1.39
2.14
2.78
3.11
3.03
2.58
1.86
0.98
0.04
-0.91
-1.80
-2.60
-3.28
-3.84
-4.34
-4.81
-5.25
-5.65
-5.99
-6.32
-6.72
-7.30
-8.10
-9.07
-10.03
-10.81
-11.30
-11.48
-11.45
-11.38
-11.42
-11.68
-12.21
-13.03
-14.09
-15.32
-16.70
-18.27
-20.15
-22.50
-25.46
-29.03
-33.11
-37.47
-41.86
-46.10
-50.17
-54.23
-58.59
-63.57
-69.38
-75.97
-83.06
-90.22
-97.16
-103.85
-110.56
-117.73
-125.73
-134.69
-144.67
-155.76
-168.14
-181.72
-195.41
-206.88
-212.69
-209.28
-194.32
-167.50
-130.51
-86.04
-36.73
15.25
67.71
117.67
161.09
193.66
212.40
217.10
210.54
197.40
182.34
168.45
156.74
146.71
137.41
128.28
119.42
111.16
103.74
97.03
90.70
84.44
78.12
71.80
65.71
60.07
54.95
50.29
45.82
41.20
36.12
30.50
24.47
18.43
12.78
7.83
3.62
0.02
-3.24
-6.33
-9.24
-11.72
-13.36
-13.73
-12.54
-9.71
-5.39
0.06
6.21
12.59
18.82
24.54
29.53
33.64
36.82
39.11
40.54
41.17
41.12
40.56
39.77
39.05
38.64
38.58
38.74
38.85
38.68
38.16
37.43
36.71
36.24
36.13
36.31
36.66
37.02
37.29
37.40
37.26
36.76
35.72
34.01
31.53
28.24
23.99
18.56
11.73
3.48
-5.76
-15.11
-23.41
-29.64
-33.23
-34.34
-33.66
